timestamp,emg1,emg2,emg3,emg4,emg5,emg6,emg7,emg8
1517145315622179,1,2,3,-7,0,0,-1,-1
1517145315622179,-1,-2,-14,-4,-2,0,-1,0
1517145315623180,1,15,21,9,1,0,1,-1
1517145315623180,0,-6,-26,-14,-2,-1,-2,-1
1517145315624181,-2,1,6,7,0,-1,-2,-1
1517145315624181,0,0,5,7,-1,-1,0,-1
1517145315627182,-1,4,3,-9,0,1,-1,0
1517145315627182,-1,-12,3,0,-3,-1,-1,-2
1517145315634187,-2,-7,-51,-3,0,-1,-1,-2
1517145315634187,1,5,-17,-6,1,-1,-1,-1
1517145315649198,-3,-2,17,8,-2,-3,-2,-1
1517145315649198,0,-2,1,-3,-2,-1,0,1
1517145315650198,0,6,22,3,0,1,-1,0
1517145315650198,-4,-7,-11,2,-1,-2,-1,-3
1517145315664210,-1,0,-13,-6,-2,-2,0,-2
1517145315664210,-5,6,9,-7,-4,-2,-2,-2
1517145315688225,1,2,6,4,2,0,1,1
1517145315688225,2,6,24,1,-3,-1,0,0
1517145315689226,1,-4,-24,-1,6,3,-1,-2
1517145315689226,-3,0,-2,10,0,-1,-2,-4
1517145315696231,0,-4,13,-14,-4,-2,0,2
1517145315696231,-3,0,8,0,-1,-3,-1,-1
1517145315710241,0,-3,4,0,-5,-3,-2,0
1517145315710241,6,2,-1,10,3,0,0,1
1517145315750278,0,1,1,4,-1,0,-4,-14
1517145315750278,0,2,6,-3,-1,0,-2,0
1517145315755273,-1,-4,5,-4,-2,-3,-2,-1
1517145315755273,0,-2,-6,2,-2,-1,-1,-2
1517145315756274,-1,-2,0,-8,-1,-1,0,3
1517145315756274,-2,-2,-6,1,-2,-1,-2,-3
1517145315757280,0,13,5,-4,-2,-1,-1,-1
1517145315757280,-2,-22,6,0,0,0,-2,0
1517145315761278,0,-1,-8,-1,-1,-1,1,7
1517145315761278,-3,2,15,4,-1,-2,-4,-11
1517145315768283,-3,1,-22,1,0,1,0,2
1517145315768283,-3,-5,-6,-4,-2,0,-2,-3
1517145315778293,-1,1,2,1,0,-1,0,1
1517145315778293,-1,-2,-2,-4,0,0,0,3
1517145315792301,0,-5,3,1,-1,0,-1,-2
1517145315792301,3,19,10,8,1,0,0,-2
1517145315798304,-2,-15,-1,0,0,-1,1,0
1517145315798304,-1,-13,9,-13,0,-1,0,1
1517145315822322,-1,7,-50,-4,-4,-3,-3,-3
1517145315822322,-5,-3,-4,-16,-5,-4,-2,-1
1517145315824323,0,8,-1,6,-2,0,-2,0
1517145315824323,1,3,21,1,-2,-1,1,7
1517145315836331,-1,-11,4,4,0,-1,-4,-16
1517145315836331,1,-1,-4,4,-1,1,-1,0
1517145315845338,1,25,14,5,-2,-2,-2,-1
1517145315845338,-5,-37,-40,-2,-1,0,0,1
1517145315859355,-1,0,3,-12,-3,-1,0,4
1517145315859355,-1,9,1,3,0,-1,-1,-1
1517145315867353,-4,-5,4,-6,-3,-2,-1,-5
1517145315867353,-1,3,5,15,2,0,-1,-1
1517145315883365,-1,-11,-42,-16,-3,-2,1,0
1517145315883365,1,-5,40,0,-1,-2,-2,-1
1517145315885366,-2,0,-16,7,-1,-1,0,1
1517145315885366,-1,4,8,-7,-2,-1,-2,-3
1517145315896374,-2,-6,-8,0,0,-2,-2,-1
1517145315896374,1,4,-11,3,0,-1,1,2
1517145315905380,1,-4,10,-6,3,1,0,-3
1517145315905380,-1,-4,-18,3,-5,-2,-1,-2
1517145315919390,0,10,15,8,4,1,0,2
1517145315919390,1,3,-3,-9,-2,-1,0,0
1517145315927395,-2,0,-19,5,-1,-1,-1,0
1517145315927395,0,2,13,-5,-3,-2,-2,-6
1517145315942406,-5,-27,13,13,4,-1,0,2
1517145315942406,-1,21,1,-9,-3,-1,-1,-3
1517145315944407,-4,-13,-22,-13,-4,-3,-2,1
1517145315944407,3,11,-11,-3,1,0,0,0
1517145315956416,0,11,18,4,-3,-2,0,1
1517145315956416,-3,-21,14,3,-1,-2,-1,-1
1517145315965422,0,-9,-13,-10,-5,-3,-2,-2
1517145315965422,-1,2,15,-5,-1,-1,-1,1
1517145315980433,-5,-12,-20,4,-1,0,0,-1
1517145315980433,-3,10,-6,9,0,-1,-2,-4
1517145315981433,-1,-21,-9,-9,1,1,-1,0
1517145315981433,-3,-14,-12,0,-2,-2,-2,-1
1517145316002448,4,23,41,9,0,-1,0,1
1517145316002448,1,-10,-18,-14,0,0,0,-1
1517145316004450,-4,1,12,7,0,-1,0,-2
1517145316004450,-1,7,-9,-4,-1,0,1,0
1517145316016458,-3,-7,-15,-6,-2,-2,-1,-1
1517145316016458,-1,-4,7,10,0,0,-1,-1
1517145316032470,0,5,7,2,0,-1,0,-1
1517145316032470,0,21,1,-12,-1,0,-2,-1
1517145316039475,-5,-45,3,1,-5,-1,-2,-2
1517145316039475,-2,-1,-14,-17,-4,-2,-1,0
1517145316047481,-2,5,6,8,5,1,-2,-2
1517145316047481,0,6,-5,10,-1,-2,0,0
1517145316062492,2,7,25,-8,-1,-3,-2,-2
1517145316062492,0,-1,-2,10,0,1,1,0
1517145316064492,1,-19,-14,-13,-2,-1,0,1
1517145316064492,-3,7,5,-1,-2,-3,-1,0
1517145316076501,2,16,31,-4,1,0,-1,1
1517145316076501,-2,-2,14,9,0,-2,-1,1
1517145316085508,-1,7,0,0,-2,-2,0,-3
1517145316085508,-1,-4,-5,5,-1,-1,0,1
1517145316100518,2,8,1,0,-1,-1,-1,-1
1517145316100518,-2,2,-13,-4,1,-1,-1,-3
1517145316101519,2,2,11,2,0,0,0,2
1517145316101519,-3,-4,-2,0,0,-1,-2,-1
1517145316122533,-1,-1,-15,-2,0,1,0,-3
1517145316122533,-2,4,-3,-1,-1,-1,-1,-2
1517145316124535,0,-9,6,-2,-2,-1,1,-2
1517145316124535,-1,-7,0,2,-1,-1,-1,-2
1517145316136544,-2,5,-23,-5,-1,-2,-2,-2
1517145316136544,-8,-16,-5,-4,-3,-2,-1,-2
1517145316145550,-1,12,12,10,-1,-1,-2,-3
1517145316145550,-3,-6,-20,3,-1,-1,-1,-1
1517145316160561,2,-1,18,-13,-6,-3,0,1
1517145316160561,-4,-4,-19,-2,0,-1,-1,-1
1517145316161562,-2,-8,-10,-6,0,-1,-2,-3
1517145316161562,2,13,-5,1,0,0,-1,-3
1517145316182576,0,5,-10,11,1,-1,-1,-2
1517145316182576,1,-1,9,-10,1,0,1,1
1517145316184578,-6,19,45,1,-5,-2,-2,-2
1517145316184578,1,-10,-54,0,0,0,-1,-1
1517145316196586,-4,-11,-1,-3,-4,-2,-2,-2
1517145316196586,3,6,-23,13,3,-1,0,0
1517145316205593,3,6,-12,-13,1,1,1,2
1517145316205593,-2,-9,43,9,-3,-2,0,-1
1517145316220603,-6,-5,-15,-10,1,1,-1,-1
1517145316220603,1,-1,-10,-9,-3,-1,-2,0
1517145316221604,-1,5,5,1,1,-2,-2,-3
1517145316221604,1,2,-2,-1,-3,-1,0,5
1517145316242619,0,-4,9,12,2,-1,-3,-11
1517145316242619,1,0,-1,7,1,1,1,-5
1517145316244621,-4,-5,-20,-6,-5,-3,-2,-2
1517145316244621,-1,-2,25,2,-1,0,-1,-2
1517145316256629,-1,6,0,-2,-2,0,-2,3
1517145316256629,1,0,22,-8,2,-2,-1,2
1517145316265635,-6,-6,-30,2,-2,-1,-3,-3
1517145316265635,-4,1,25,-7,0,-1,-1,-4
1517145316279645,-2,-39,-66,10,-3,-1,0,3
1517145316279645,1,-3,2,-21,0,0,-2,0
1517145316287651,5,31,10,-7,0,1,-1,1
1517145316287651,-9,-26,-19,-4,-2,-3,-3,-3
1517145316301660,-1,14,20,2,0,-1,-2,-2
1517145316301660,2,-10,17,11,-2,-1,-1,0
1517145316310667,-2,-19,-35,3,1,0,0,-1
1517145316310667,2,17,-5,-11,-1,0,-1,0
1517145316325678,1,1,1,4,2,-1,-1,1
1517145316325678,1,30,7,8,-3,-1,-1,-1
1517145316326679,-3,-39,31,-7,-2,-1,1,-1
1517145316326679,1,2,-9,1,0,-2,-1,-2
1517145316339687,0,-5,3,-5,-1,1,2,7
1517145316339687,-2,-4,-14,0,-2,-3,-3,-8
1517145316341689,-2,-4,-14,0,-2,-1,-1,0
1517145316341689,1,-1,-15,2,1,-1,0,-1
1517145316362705,3,27,56,-3,0,-1,0,3
1517145316362705,-7,-14,-21,-9,-3,-2,-1,-1
1517145316364706,-6,2,-35,2,-2,-1,-1,-3
1517145316364706,-2,10,18,-6,-1,-1,-1,-1
1517145316384720,0,4,13,2,0,-1,0,-1
1517145316384720,1,6,7,9,-2,0,-2,1
1517145316386722,-3,-10,-18,-14,-2,-2,-1,-2
1517145316386722,-1,-3,-10,-4,-1,0,-1,-2
1517145316400731,1,25,-1,-9,-2,-2,-3,-4
1517145316400731,0,0,14,-1,1,0,0,1
1517145316405734,2,-12,-35,1,-2,0,0,0
1517145316405734,-2,-2,22,8,2,0,0,2
1517145316422746,-7,-1,-5,-7,-4,-3,-2,-5
1517145316422746,-1,-7,-10,0,-3,-1,-1,-1
1517145316423748,7,7,19,4,1,0,0,1
1517145316423748,-2,18,-18,-4,-2,-2,-2,-2
1517145316444762,-2,-16,-2,1,-2,0,-2,-1
1517145316444762,-1,-2,-9,-5,1,-1,-1,0
1517145316446763,1,10,33,8,1,0,0,-1
1517145316446763,-3,-10,-12,-6,-3,-1,-3,-3
1517145316459773,-2,-5,-5,2,0,-2,-1,-3
1517145316459773,-4,-4,10,9,-5,-2,0,-1
1517145316466779,1,2,13,0,3,1,-2,0
1517145316466779,1,-2,1,-12,4,-1,0,0
1517145316482790,-2,5,-1,-2,-1,-2,-1,0
1517145316482790,-5,-24,-41,-14,-4,-2,-1,-3
1517145316483791,-2,7,27,13,-2,-1,-1,-2
1517145316483791,-1,-1,-7,-2,-4,-1,-1,-3
1517145316504805,1,4,-7,-21,-5,-4,-2,-3
1517145316504805,-2,-4,20,3,1,0,-1,-1
1517145316506806,-7,-39,-37,0,-5,-4,-2,-2
1517145316506806,0,-2,38,2,-1,-1,0,2
1517145316519815,-1,-12,-71,-7,-1,1,-2,-1
1517145316519815,-1,9,14,5,-1,0,0,0
1517145316526821,1,10,6,-1,0,-1,-1,0
1517145316526821,-1,-1,4,5,-1,0,0,0
1517145316542832,-3,-9,-19,4,0,-1,0,-1
1517145316542832,-1,3,28,-3,0,-1,-3,-2
1517145316543832,-1,10,4,-4,-2,-1,-3,-1
1517145316543832,-2,-4,-11,0,0,-1,-1,1
1517145316564848,0,9,13,7,0,0,0,-1
1517145316564848,0,1,-27,-5,0,-1,0,0
1517145316566849,0,1,10,-3,-1,-3,0,0
1517145316566849,-4,-9,2,11,0,0,-1,-2
1517145316578858,-1,-4,1,-15,-3,-1,-2,-2
1517145316578858,2,14,6,5,0,0,0,1
1517145316587864,-5,-10,-6,-4,-2,-2,-2,-1
1517145316587864,1,-1,-6,-3,-1,-2,-2,-1
1517145316602874,-2,-4,19,11,1,0,1,0
1517145316602874,0,3,-2,-4,-3,-1,-1,-1
1517145316603875,0,6,15,-1,-2,0,-1,-1
1517145316603875,-3,-16,-20,1,-2,0,-1,-1
1517145316625895,-2,2,11,-2,0,-1,-2,-2
1517145316625895,-4,-11,-37,-8,-2,-2,-2,-1
1517145316626893,-2,0,-24,1,0,0,0,1
1517145316626893,2,11,8,0,1,-1,1,5
1517145316639900,0,1,26,1,-2,-1,-3,-13
1517145316639900,-1,12,15,-1,-1,-2,-1,-2
1517145316645905,-4,-14,-1,-2,0,1,-1,-2
1517145316645905,-1,2,-18,-3,-3,-2,-3,-1
1517145316662917,3,7,-4,2,1,0,0,4
1517145316662917,-1,-17,-9,1,0,-1,0,0
1517145316663918,2,12,6,-1,0,-1,0,-2
1517145316663918,-3,4,12,-3,-1,0,0,-2
1517145316692945,-7,-16,-29,-8,-3,-1,-1,-1
1517145316692945,1,-7,-6,-4,-5,-3,-3,-2
1517145316699944,-3,2,12,1,1,0,-2,1
1517145316699944,-2,-6,9,-6,-3,-1,-1,-2
1517145316700944,4,7,8,7,2,0,0,1
1517145316700944,-4,3,22,7,1,1,0,1
1517145316705948,-5,4,-24,-5,-2,-2,-1,0
1517145316705948,-1,11,-3,-11,1,-1,-1,-4
1517145316720958,-6,-40,-18,0,-2,-3,-2,-1
1517145316720958,0,-13,-12,0,-2,-1,0,0
1517145316729964,2,4,29,5,0,-1,-1,1
1517145316729964,-4,-7,-1,-2,-1,-2,-2,-3
1517145316744975,0,10,11,2,0,-1,-1,0
1517145316744975,0,0,-19,-3,0,1,-1,-1
1517145316746977,0,4,0,2,-3,-1,0,-2
1517145316746977,2,-6,-2,4,0,1,-1,-1
1517145316767992,-2,-4,-41,-5,-2,-3,-2,-1
1517145316767992,1,8,17,4,1,0,0,0
1517145316768993,1,8,-3,-6,-2,-1,0,0
1517145316768993,-3,-8,-7,-1,-3,-2,-1,-1
1517145316789007,3,17,19,3,0,0,-1,0
1517145316789007,-5,-11,-4,-5,-2,-1,0,-2
1517145316798013,0,-7,-21,-7,-2,-2,-2,-2
1517145316798013,1,3,11,4,0,-1,-2,0
1517145316805017,-6,2,9,2,0,0,0,2
1517145316805017,2,1,4,-2,-1,-2,-2,-2
1517145316813023,7,24,16,2,-1,0,0,3
1517145316813023,-10,-38,-41,-2,-2,-1,-3,-5
1517145316828042,3,21,9,-4,-3,-2,-1,-2
1517145316828042,-9,-33,9,-11,0,-3,-1,0
1517145316830040,-2,-4,4,-1,-2,-1,0,-1
1517145316830040,4,9,0,-7,-3,-2,-1,-1
1517145316850051,0,5,-2,6,5,0,1,-1
1517145316850051,0,6,-6,3,-2,0,-2,-2
1517145316852051,1,-3,2,5,-3,-2,-1,-3
1517145316852051,2,7,-1,2,5,1,0,0
1517145316865061,-3,-23,-1,-13,-1,-2,-1,-1
1517145316865061,-2,5,-12,-2,-2,-1,-2,-1
1517145316867062,-3,-9,2,2,0,-1,-2,-2
1517145316867062,3,9,4,4,-1,0,0,1
1517145316888076,-2,-12,3,-3,-3,0,-2,0
1517145316888076,2,8,-7,15,4,0,-1,-1
1517145316889077,-1,0,0,-25,-7,-3,-2,-2
1517145316889077,-2,-5,23,8,-2,-1,-2,-2
1517145316910147,0,2,-28,-12,-3,-2,-2,-1
1517145316910147,1,23,7,-3,-4,-3,-1,-4
1517145316912097,-7,-26,-9,21,4,1,1,-1
1517145316912097,-2,-2,8,-18,-3,-2,0,-1
1517145316924156,0,3,8,6,0,-1,0,0
1517145316924156,0,12,-12,-3,0,1,1,0
1517145316932162,1,-25,-8,0,0,-1,-3,0
1517145316932162,-1,20,25,3,-3,0,-2,-1
1517145316947174,-2,-5,-38,-2,-2,-1,-2,0
1517145316947174,-1,-13,-3,-7,-3,-2,-1,-1
1517145316948155,1,8,-1,-2,0,-1,1,-2
1517145316948155,-1,6,-4,-2,-2,-2,0,-1
1517145316969193,0,-5,15,5,-2,-1,0,-2
1517145316969193,0,-4,-4,-1,0,0,-1,-1
1517145316970158,-2,5,11,-11,-4,-1,-2,-2
1517145316970158,-2,-8,-10,4,-2,-1,-1,-1
1517145316985155,-1,7,24,2,0,0,-2,-1
1517145316985155,-2,-9,-23,-5,-1,-1,-2,-1
1517145316992155,0,-2,3,2,1,0,0,0
1517145316992155,1,5,-6,0,0,-1,0,-1
1517145317007163,-1,-4,1,1,0,0,0,1
1517145317007163,-5,0,15,-2,-5,-3,-1,-4
1517145317008164,0,1,-4,-2,0,-2,-1,-2
1517145317008164,3,-5,-13,0,-2,-2,-1,-1
1517145317038186,-4,0,-3,4,0,-1,0,-2
1517145317038186,-1,-2,10,-9,-3,-1,0,0
1517145317038186,-5,10,6,-1,-2,-2,-1,-1
1517145317038186,-2,-17,-14,-8,-1,-1,0,-1
1517145317044189,-2,-18,9,2,-3,-1,-1,-1
1517145317044189,-1,-7,-15,5,5,2,0,0
1517145317052194,-1,2,-4,-7,-7,-6,-4,-2
1517145317052194,6,17,16,-1,-3,-2,-2,1
1517145317067259,-5,-2,-4,-10,0,0,0,-1
1517145317067259,-3,-1,7,9,2,-2,-2,-3
1517145317068231,3,8,-7,8,2,1,2,0
1517145317068231,-6,-20,-18,-2,-4,-2,-1,-2
1517145317089274,4,12,14,-3,-1,-1,-1,0
1517145317089274,-1,-2,-11,4,-2,-1,0,1
1517145317090224,3,1,-1,-2,0,-1,-1,0
1517145317090224,-6,6,3,-2,-3,-2,-1,-3
1517145317104248,0,0,-5,7,1,-1,0,-1
1517145317104248,-3,-13,-13,-8,5,1,1,0
1517145317112242,-1,-5,9,-9,-2,-2,-2,-3
1517145317112242,-4,-1,8,-2,-4,-2,-2,-1
1517145317127263,-3,-13,6,-9,-7,-3,-3,-3
1517145317127263,4,25,-2,12,1,1,-1,-1
1517145317128250,-1,-16,-5,4,1,1,1,-1
1517145317128250,0,-1,7,0,1,-2,-2,-2
1517145317149317,-2,4,-3,-8,-3,0,0,-2
1517145317149317,3,4,20,0,0,-2,0,1
1517145317150264,-5,-23,-26,-4,-2,-1,-2,-2
1517145317150264,-1,2,-4,-3,-1,-1,0,-1
1517145317164275,1,0,-9,8,-1,0,-1,-1
1517145317164275,-2,-2,6,-2,-2,-1,-2,-1
1517145317172334,4,12,5,-3,-1,0,0,-1
1517145317172334,-2,-7,-14,6,2,0,-2,-1
1517145317187346,-2,11,15,-1,1,-2,0,-1
1517145317187346,-3,-12,0,-5,-4,-2,-2,-3
1517145317187346,-1,13,-1,-2,-2,-1,-1,0
1517145317187346,-1,-25,-9,0,1,0,-1,0
1517145317210307,0,-4,0,-5,-2,0,-1,-2
1517145317210307,-4,-11,1,-1,-2,-2,-3,-3
1517145317210307,-3,25,-11,11,3,0,-2,-1
1517145317210307,4,-15,14,-3,1,1,0,-1
1517145317223315,-4,-6,-4,-3,-3,-4,-3,-3
1517145317223315,-2,-3,-18,-4,-4,-1,0,1
1517145317232328,-3,-2,3,-11,-2,-2,-1,-2
1517145317232328,-1,8,-7,6,2,0,-1,-2
1517145317247336,3,16,8,2,1,0,-1,1
1517145317247336,3,-36,-2,0,-7,-3,-1,-1
1517145317247336,1,17,2,5,-2,-1,0,1
1517145317247336,-7,10,-7,-10,-2,-1,-1,-4
1517145317269347,-3,10,7,5,5,2,-1,1
1517145317269347,1,4,-12,-12,-5,-3,-2,0
1517145317270348,0,-11,-9,2,2,0,-2,-1
1517145317270348,0,-2,5,-3,-4,-3,-1,-1
1517145317283377,0,-4,-1,2,-1,-2,0,-2
1517145317283377,-1,17,22,2,0,-1,0,0
1517145317292363,-4,-36,12,11,0,-1,0,-1
1517145317292363,-1,3,-22,-13,-4,-2,-2,0
1517145317315381,-2,2,1,3,-3,-1,-1,-1
1517145317315381,0,13,-38,-15,1,0,-1,-2
1517145317315381,-2,-13,30,3,-2,-1,0,0
1517145317315381,0,-4,20,11,-1,0,-1,0
1517145317329389,1,3,-18,-1,-1,-1,-1,-1
1517145317329389,0,-15,0,2,-2,-1,-2,-1
1517145317330390,1,16,0,-3,4,1,0,-1
1517145317330390,0,5,-22,-7,-4,-2,-1,-1
1517145317343399,-6,2,9,-3,-3,-2,-2,-1
1517145317343399,-5,-12,-1,2,1,-2,0,-1
1517145317352406,-2,-2,-2,-5,-3,-1,-3,-1
1517145317352406,0,1,6,4,2,-1,0,-1
1517145317367418,0,-7,-16,-5,-1,0,1,-1
1517145317367418,0,5,15,2,0,0,-1,-1
1517145317367418,-1,0,10,-5,-2,-2,-3,-2
1517145317367418,2,8,-2,1,-2,0,0,1
1517145317389471,0,-10,-10,1,1,-1,-1,-1
1517145317389471,-8,-18,20,0,-1,-1,-2,-4
1517145317397442,1,-3,-15,-1,-2,0,-1,0
1517145317397442,0,12,-8,0,-1,0,-1,1
1517145317403497,3,-5,5,5,2,-1,0,1
1517145317403497,0,8,25,-2,-2,-1,-1,-1
1517145317419508,-2,2,0,-14,-6,-4,0,-3
1517145317419508,-3,-14,-11,5,1,1,-1,-2
1517145317426512,1,4,-12,-2,0,-1,-1,0
1517145317426512,0,-3,-5,2,0,-1,2,6
1517145317427459,-1,0,-4,0,0,-1,-4,-13
1517145317427459,-1,4,16,1,1,-1,-1,-1
1517145317449475,-2,-5,4,-3,-2,-1,-2,-1
1517145317449475,0,15,-2,1,-1,0,0,1
1517145317450477,-4,-30,-8,0,0,-2,1,2
1517145317450477,-4,0,-19,-3,-1,-1,-1,-2
1517145317463538,-2,-10,4,1,-2,0,1,-3
1517145317463538,1,-4,6,1,0,0,-1,-2
1517145317472494,2,12,-5,6,0,1,0,1
1517145317472494,0,6,5,-16,-2,-1,-1,-1
1517145317486555,-1,0,-10,-8,-1,-2,-1,-1
1517145317486555,4,8,0,1,-1,0,0,-1
1517145317487505,-3,6,1,6,-1,-1,-1,1
1517145317487505,-4,-4,2,5,-1,-2,-2,-2
1517145317509548,0,1,-3,-3,-2,0,-3,0
1517145317509548,1,1,-14,-4,-1,0,0,-1
1517145317510520,-1,5,23,2,-2,-2,-2,1
1517145317510520,-1,-5,-1,-4,-1,-1,-1,-1
1517145317523587,-3,-5,-3,-2,0,0,-1,-2
1517145317523587,-2,-4,-12,-1,1,-1,-1,-2
1517145317531536,0,2,-14,-7,-3,-1,0,0
1517145317531536,0,-3,23,3,-1,-1,-2,-1
1517145317546550,2,0,10,5,0,0,-1,-1
1517145317546550,-2,7,-5,-1,-1,-1,-2,-1
1517145317547546,-8,-2,-2,0,-2,0,-1,-2
1517145317547546,2,3,-8,5,-1,1,-1,-1
1517145317569614,0,0,9,-3,1,0,-1,-2
1517145317569614,-3,-3,-11,0,-1,-2,-2,-1
1517145317570597,3,0,4,-15,-3,-3,0,1
1517145317570597,-5,0,-6,-6,-2,-3,-2,-2
1517145317583587,-3,-12,3,4,1,-2,0,-1
1517145317583587,2,4,13,7,-1,-1,0,-1
1517145317591579,0,9,-12,2,1,0,0,-1
1517145317591579,-2,-8,-17,1,-1,0,-1,0
1517145317606588,-1,11,14,-1,-2,-1,-1,0
1517145317606588,-4,-27,-3,-5,-3,-2,-1,-1
1517145317607587,-2,-2,-7,-4,-2,-2,-3,-1
1517145317607587,1,-4,-13,1,-1,-2,-1,-1
1517145317630604,-2,3,-6,-3,-2,-1,-2,0
1517145317630604,-1,17,1,0,-2,-1,-2,-4
1517145317636608,2,-1,-24,-7,-1,-1,-1,1
1517145317636608,-3,0,50,5,-1,-2,-1,-3
1517145317643613,-1,1,-13,-3,-1,-2,-1,-1
1517145317643613,-5,-13,-40,-10,-4,-3,-1,-1
1517145317651618,-2,-4,7,5,0,-1,-1,-2
1517145317651618,2,11,-10,-6,0,-1,0,0
1517145317666629,5,8,-3,5,-2,0,-1,0
1517145317666629,-2,2,21,10,2,0,-3,0
1517145317667630,-7,-6,5,-8,-4,-2,-2,-2
1517145317667630,3,-8,-10,0,0,0,0,1
1517145317697670,-4,2,-7,-1,-2,0,-1,-1
1517145317697670,2,2,-17,0,0,0,0,-2
1517145317698671,0,2,25,6,0,0,-1,-1
1517145317698671,0,1,8,1,-1,-1,-2,-2
1517145317703674,0,0,-9,-2,-1,-2,-1,0
1517145317703674,-3,-18,-10,-8,-2,-3,-2,-1
1517145317711661,1,-5,-12,1,0,1,0,0
1517145317711661,-1,-8,1,-3,-1,-1,-1,0
1517145317726673,-1,15,6,0,-1,-3,-2,-2
1517145317726673,1,15,7,-4,-1,-1,-1,0
1517145317727674,-2,1,10,-3,-2,-1,-1,-1
1517145317727674,-4,-27,-14,2,0,-1,-1,0
1517145317749706,-1,5,2,1,-1,-1,0,0
1517145317749706,0,-1,6,-3,-2,-1,0,-1
1517145317749706,-1,-3,-21,-2,-2,-2,-2,-2
1517145317749706,2,12,-2,1,-1,0,0,0
1517145317772703,-1,-7,18,0,0,-1,-2,-1
1517145317772703,-2,-19,7,-2,-3,-1,0,0
1517145317773704,-1,-9,-4,-3,-1,0,0,-1
1517145317773704,-2,9,10,-1,-3,0,-1,-1
1517145317786732,-5,-36,-3,2,-2,-2,-2,-3
1517145317786732,0,31,0,-3,0,-1,-1,0
1517145317787714,-1,-1,-3,0,-1,0,-3,-1
1517145317787714,0,5,11,-1,1,0,0,0
1517145317809730,1,-2,-26,0,0,-1,-1,0
1517145317809730,-3,-7,4,-4,-2,-1,-1,-2
1517145317809730,-1,-3,-4,2,0,-1,0,0
1517145317809730,-2,-2,-2,-4,-2,-1,-1,-3
1517145317832785,-1,-9,-2,-2,-1,-1,0,-1
1517145317832785,0,2,4,3,-1,-1,-1,0
1517145317833764,1,7,-3,1,0,-1,-1,-1
1517145317833764,-1,-5,-13,-8,-3,-2,-2,-2
1517145317847796,0,-7,15,-2,-1,0,0,0
1517145317847796,-4,4,-13,-3,-3,-2,-2,-3
1517145317847796,0,-6,6,1,1,-1,-2,0
1517145317847796,1,-1,-21,2,-1,-1,-1,0
1517145317869828,-2,-4,9,1,-4,-2,-2,-3
1517145317869828,0,7,7,2,-2,0,-1,0
1517145317869828,-1,8,19,-8,-1,0,-2,-1
1517145317869828,-2,-5,-18,-6,-1,-2,-1,-2
1517145317892791,-2,-11,-12,-4,-1,0,0,-2
1517145317892791,2,-5,2,2,1,0,0,0
1517145317893794,0,8,8,-2,-3,-2,-1,-2
1517145317893794,-4,-1,-15,2,-1,-1,-2,1
1517145317914812,0,11,3,0,-1,0,0,-2
1517145317914812,1,-15,-6,-10,-2,-2,-2,-2
1517145317921864,-5,-2,-11,-2,-1,-1,0,-1
1517145317921864,2,14,11,0,0,-1,-1,-1
1517145317929836,-4,-36,-14,0,-3,-2,-2,1
1517145317929836,-3,0,8,-4,-1,-1,0,-1
1517145317929836,1,2,2,2,-3,-2,-1,0
1517145317929836,3,-2,-7,19,2,0,0,0
1517145317952885,0,11,2,-19,-1,-2,-2,-1
1517145317952885,-4,-6,-18,-8,-2,0,-3,-1
1517145317953876,-1,0,-3,1,-1,-2,0,-1
1517145317953876,0,-5,19,3,-3,-1,-1,-1
1517145317974851,0,26,-22,6,0,-2,-1,-2
1517145317974851,-3,-26,-8,0,-1,-2,0,-2
1517145317975853,-1,-2,12,-8,-2,0,-1,0
1517145317975853,-3,-11,10,-3,-1,-1,-1,-2
1517145317989872,1,18,15,-2,2,0,-1,1
1517145317989872,-2,4,-23,-1,-3,-2,-1,-2
1517145317989872,-1,-10,-10,10,0,0,-1,-1
1517145317989872,0,0,-1,-10,-2,-2,0,-1
1517145318012875,0,-10,2,0,-1,0,-1,-2
1517145318012875,-1,11,-11,14,1,0,1,1
1517145318013876,1,-11,24,-10,0,0,0,0
1517145318013876,-5,-1,-6,-12,-6,-5,-3,-2
1517145318026899,-2,-3,-6,2,1,1,0,-1
1517145318026899,4,-1,21,3,-1,-1,-2,-3
1517145318027886,-2,9,-36,2,2,0,-1,-1
1517145318027886,-3,9,1,-5,-2,0,0,-3
1517145318049906,-2,-18,6,-2,-3,-3,-1,0
1517145318049906,0,6,11,2,1,1,0,1
1517145318049906,-2,-10,-12,1,-3,-2,-2,-2
1517145318049906,2,18,9,-15,-2,0,-1,1
1517145318072918,-9,-36,-11,2,-4,-5,-3,-2
1517145318072918,0,3,3,-1,1,0,1,0
1517145318072918,3,6,19,5,0,-1,0,-1
1517145318072918,-2,-22,11,2,-2,-2,-2,-1
1517145318086934,2,19,-6,2,-3,0,0,-1
1517145318086934,1,8,5,1,3,1,-1,-1
1517145318087943,-4,0,-26,-8,-3,-2,-1,-1
1517145318087943,0,1,0,4,1,0,-1,0
1517145318108963,-1,1,-1,-8,-2,-1,0,-1
1517145318108963,0,1,-2,9,4,0,-1,1
1517145318109945,0,5,19,2,-4,-3,0,0
1517145318109945,-3,-15,-33,-2,2,-1,0,-2
1517145318133019,-1,3,-4,-14,-6,-3,-2,-1
1517145318133019,5,14,10,-2,-3,0,-1,-1
1517145318133019,-4,-7,10,-4,1,-1,0,-1
1517145318133019,-1,-3,12,13,-1,-2,-1,-1
1517145318146990,1,7,11,1,4,1,0,-1
1517145318146990,-4,-12,-34,-19,-4,-3,-1,-2
1517145318147992,0,-5,-4,-1,-4,0,-1,-1
1517145318147992,1,-3,8,0,-1,-1,0,0
1517145318169991,-1,10,3,6,-1,-2,-1,-1
1517145318169991,-1,-1,-3,2,-2,-2,-2,-1
1517145318169991,0,4,-10,-2,-2,1,-1,0
1517145318169991,-3,1,-9,1,0,-1,-3,-1
1517145318193060,2,-1,9,1,3,1,0,-2
1517145318193060,1,18,4,3,-1,-2,-2,-3
1517145318194004,-5,-16,-3,-1,-3,-4,-2,-4
1517145318194004,1,12,7,0,-2,-2,0,0
1517145318207072,1,8,-4,2,3,0,-1,0
1517145318207072,-2,-1,-13,2,-3,-1,-2,-2
1517145318208014,2,8,6,-10,-1,0,0,0
1517145318208014,0,7,10,-2,0,-1,-2,-3
1517145318229068,-1,7,-12,5,-3,-2,-1,-2
1517145318229068,-6,-27,-16,-5,0,-1,0,-1
1517145318230041,1,-6,-15,1,1,0,-1,0
1517145318230041,2,-5,-2,-11,-4,-3,-1,-2
1517145318253099,-5,-6,-2,2,-1,-1,-2,-1
1517145318253099,-5,-6,-8,3,0,-1,-2,0
1517145318253099,3,4,-4,2,1,-1,-2,-1
1517145318253099,-3,-9,3,-2,0,1,-1,-3
1517145318267116,4,3,10,-1,-2,0,-1,0
1517145318267116,-3,-5,-12,-4,-2,-2,0,-2
1517145318268059,0,8,-5,3,0,-1,-1,0
1517145318268059,-2,-9,4,-6,-2,0,0,-1
1517145318289071,-1,-1,6,-6,-3,-3,-1,-1
1517145318289071,1,2,28,2,-1,-1,0,-2
1517145318290072,-1,2,-10,-1,-2,0,0,-1
1517145318290072,-2,3,-9,-5,-3,-2,-1,-2
1517145318313091,-4,-14,-21,0,2,1,-1,-1
1517145318313091,2,9,12,-6,-2,-2,-2,-1
1517145318313091,-3,-14,16,4,1,-1,-1,-3
1517145318313091,2,-1,-21,3,1,0,-1,1
1517145318326097,-1,4,9,-1,-2,-2,-1,-2
1517145318326097,3,21,19,1,-1,-2,1,0
1517145318334160,-3,-33,-21,5,-1,1,0,-2
1517145318334160,-1,8,0,-7,-2,1,-1,1
1517145318349170,0,0,-10,-10,-3,-3,-1,-1
1517145318349170,-2,-4,28,6,2,-1,-3,-2
1517145318350118,-1,10,6,7,3,0,-2,1
1517145318350118,-1,-12,9,-7,-1,0,-1,-1
1517145318373134,-1,0,-30,-2,-4,-1,0,-2
1517145318373134,1,-7,38,-8,-3,-1,1,-1
1517145318373134,-1,-16,-54,-2,0,-1,-1,0
1517145318373134,-1,11,6,4,-3,-3,-1,-3
1517145318386197,2,-16,35,2,1,1,0,-2
1517145318386197,-4,-16,-6,-2,-4,-2,-1,-1
1517145318394205,1,18,-8,-1,0,-2,-1,-1
1517145318394205,-4,-8,-5,-2,0,-2,-2,-1
1517145318409156,-3,-2,-10,1,0,-1,0,0
1517145318409156,5,8,-13,-3,2,1,-1,-1
1517145318410161,-4,4,28,-10,-3,-2,0,-2
1517145318410161,-1,-2,-10,6,-1,-1,-1,0
1517145318432230,0,2,4,-6,2,-2,-2,-1
1517145318432230,1,-5,-5,8,-3,-1,-1,-1
1517145318439236,0,8,-4,-13,-2,-1,-2,-1
1517145318439236,-1,-7,-10,-1,0,0,0,-2
1517145318446203,-1,-1,-2,1,2,-1,-1,0
1517145318446203,-3,-2,1,-6,-3,-2,-1,-1
1517145318454245,0,-2,17,2,-1,-2,-1,-2
1517145318454245,-2,4,13,6,0,-1,-1,1
1517145318469256,-1,-4,-24,-2,-3,-1,-2,-2
1517145318469256,1,-1,-7,-1,2,0,-1,-1
1517145318470204,-1,-3,-8,1,-4,-1,0,-1
1517145318470204,0,2,4,-2,2,1,0,-1
1517145318493274,1,-1,-4,16,1,0,0,0
1517145318493274,-5,-3,11,-19,-4,-1,-2,-2
1517145318494218,-2,-10,-7,-3,-2,-2,-1,0
1517145318494218,-1,1,2,10,-4,-1,-1,0
1517145318506245,0,-4,6,1,3,-1,-1,0
1517145318506245,1,1,-7,0,1,1,1,1
1517145318514233,-2,4,-6,-3,-1,-2,0,-2
1517145318514233,-2,-11,-1,5,-3,0,-2,-3
1517145318529261,-1,-1,2,2,-1,0,0,-2
1517145318529261,1,-1,5,4,-4,-1,-2,0
1517145318530242,-4,4,-5,-9,-2,0,-3,-2
1517145318530242,2,-4,-15,-13,1,-2,-1,-1
1517145318552257,-6,0,5,-3,-5,-3,-1,-4
1517145318552257,1,-2,-12,13,4,-1,0,0
1517145318553257,0,-1,7,-10,-5,-1,0,0
1517145318553257,0,3,4,4,0,0,-1,0
1517145318576274,0,-1,-2,5,-2,-2,-2,0
1517145318576274,-5,-1,-4,-12,-3,-1,-1,0
1517145318577275,1,0,8,7,0,0,0,-1
1517145318577275,3,10,-13,-1,0,1,0,0
1517145318589338,-4,-30,4,-10,-2,-1,-2,-1
1517145318589338,-3,-12,0,8,-3,-2,-2,-3
1517145318590288,0,-3,-2,8,2,-1,-1,-1
1517145318590288,0,18,-25,-12,-2,-2,-2,-1
1517145318613304,-2,-9,16,-3,-5,-1,0,-1
1517145318613304,-3,1,-4,-1,0,-1,-2,-3
1517145318614338,2,4,31,-3,-1,-2,-1,0
1517145318614338,0,10,-52,5,2,0,1,-1
1517145318626310,-2,-6,-1,1,-2,-1,-1,-1
1517145318626310,1,-2,-13,-12,-1,1,0,-1
1517145318634315,0,11,5,-1,0,-1,-1,-1
1517145318634315,-2,-11,9,0,-5,-3,-1,-1
1517145318649326,0,14,-6,11,4,1,-2,0
1517145318649326,-2,-5,6,-9,-1,-1,0,0
1517145318650327,0,3,-9,7,-4,-3,-2,-1
1517145318650327,-2,-19,11,-21,0,-1,-1,-1
1517145318672345,1,3,-2,-2,1,1,0,0
1517145318672345,-2,6,-1,3,-3,-2,-2,1
1517145318673343,0,-14,-6,8,3,1,-1,-1
1517145318673343,-1,-3,9,2,2,-1,0,-1
1517145318702364,0,3,-2,-8,-3,-2,0,1
1517145318702364,2,-16,-3,2,0,0,1,0
1517145318703364,-10,23,2,-9,-4,-1,-1,-3
1517145318703364,-2,-3,8,10,1,1,-1,0
1517145318709369,2,21,-22,-12,-1,-2,0,-1
1517145318709369,2,9,4,0,1,0,-1,0
1517145318710369,0,-13,16,-1,-3,-2,-1,-2
1517145318710369,-2,13,31,1,-1,0,-1,-2
1517145318732386,0,-7,-28,6,2,1,1,0
1517145318732386,0,-7,-14,-5,-2,-2,-1,-2
1517145318733387,0,14,-2,-10,0,1,-1,-1
1517145318733387,-6,-22,-1,-3,-4,-3,-2,-2
1517145318755402,0,1,37,3,-1,0,0,-1
1517145318755402,2,5,-1,2,-1,0,1,1
1517145318755402,-4,-13,-18,-8,-2,-2,-2,-1
1517145318755402,1,1,15,0,-1,-2,2,1
1517145318769412,-2,-1,-7,5,-2,-1,-2,-2
1517145318769412,-4,8,-13,2,0,-2,-2,-3
1517145318770412,2,7,5,-5,-1,-1,-2,-1
1517145318770412,-2,-13,-14,-3,-1,-1,-1,0
1517145318792427,-5,-13,-22,-3,-4,-1,-2,0
1517145318792427,0,6,6,-3,-3,-1,-1,-2
1517145318793429,2,3,-4,1,3,2,1,2
1517145318793429,5,6,8,18,4,0,-1,0
1517145318815445,-5,2,18,-13,0,1,-1,-2
1517145318815445,-7,-2,32,2,0,0,-1,0
1517145318815445,-2,-20,-60,-3,-2,-1,-1,-2
1517145318815445,-2,-31,-11,0,-3,0,-2,-2
1517145318829476,0,15,25,-2,-1,-3,-2,-3
1517145318829476,1,3,-3,7,0,0,-1,-1
1517145318830463,1,6,16,-1,0,-2,-1,-1
1517145318830463,-3,-2,-10,-9,0,0,0,-2
1517145318852473,2,1,-10,-2,2,-1,-2,-1
1517145318852473,-1,-4,4,-2,-2,-2,-1,-1
1517145318853471,-1,-7,-3,11,-2,-1,0,-1
1517145318853471,-2,1,-9,-13,-4,-1,-2,-2
1517145318875487,-1,-1,4,-2,-5,-2,-1,0
1517145318875487,-1,-3,2,3,2,0,0,0
1517145318875487,-4,-4,-7,-24,-6,-3,-1,-2
1517145318875487,1,3,3,4,0,0,-1,1
1517145318889550,0,1,-10,-10,-4,-3,0,-1
1517145318889550,2,4,-8,4,1,-1,-1,0
1517145318890532,-3,-14,-5,5,-1,-1,-3,-2
1517145318890532,-3,12,-3,-5,-4,-2,-2,-1
1517145318912528,5,7,15,15,-1,-2,-3,0
1517145318912528,-3,-9,-10,-10,-5,-3,-2,-2
1517145318913516,0,25,15,-1,1,-1,0,-2
1517145318913516,0,-23,-1,-2,0,-2,0,-1
1517145318935581,-1,-4,-30,-2,-1,0,-1,-1
1517145318935581,-1,-1,17,-1,2,0,-1,-1
1517145318935581,-1,2,5,3,-1,0,-2,-1
1517145318935581,0,2,1,1,-2,-1,-2,-1
1517145318949594,-4,-6,-24,-2,-3,-2,-2,0
1517145318949594,-1,-4,0,-8,1,0,-2,-1
1517145318950541,1,-6,3,3,-2,-1,0,0
1517145318950541,-2,2,9,4,-1,-1,-2,0
1517145318980564,-2,-8,3,-13,-2,1,-1,-3
1517145318980564,-4,-1,-15,3,-1,0,-1,-1
1517145318980564,1,-2,13,7,3,0,0,1
1517145318980564,-1,-2,-13,-6,-4,-2,-1,0
1517145318995575,-2,30,18,12,-1,-3,-2,-1
1517145318995575,1,-14,-20,-7,-3,-1,-1,-2
1517145318995575,-2,-5,8,-10,0,-2,-1,-2
1517145318995575,-2,4,11,8,1,-1,0,0
1517145319017604,1,-3,3,-2,0,0,1,2
1517145319017604,0,2,-4,-5,-1,-1,-1,0
1517145319018588,2,-3,0,18,-2,0,-4,-2
1517145319018588,-1,5,-13,-21,-1,-3,-1,1
1517145319032605,-6,-13,5,1,1,-3,-2,-2
1517145319032605,-1,3,0,-2,-5,0,-1,-1
1517145319033602,-1,-8,-10,-1,0,0,0,0
1517145319033602,0,6,6,11,1,0,0,-1
1517145319055617,1,-5,1,-5,-1,1,0,1
1517145319055617,0,-5,-9,-8,-2,-4,-1,-1
1517145319055617,-6,1,-7,1,1,1,0,-1
1517145319055617,0,21,19,8,-1,-1,-2,-4
1517145319069679,-5,-45,1,-7,-4,-2,-1,-3
1517145319069679,0,0,1,5,0,1,-1,1
1517145319070665,2,20,-3,-10,-6,-2,-2,2
1517145319070665,-2,-26,-3,1,1,0,0,0
1517145319093641,1,11,-19,-13,-1,0,-1,-1
1517145319093641,4,6,-4,4,2,0,2,0
1517145319093641,-6,-11,-15,-8,-1,-3,-2,-1
1517145319093641,-4,-2,8,-4,-7,-3,-4,-5
1517145319114656,4,13,3,1,2,0,-1,0
1517145319114656,-1,1,2,16,1,0,0,0
1517145319115657,-1,-9,-6,0,0,0,2,-2
1517145319115657,-2,-6,-12,-15,-2,-1,-2,0
1517145319129695,1,1,11,-1,-3,-1,-1,-1
1517145319129695,-1,9,-1,6,-1,-1,-2,-2
1517145319130671,-1,4,7,-7,-2,0,-1,-1
1517145319130671,-6,2,-5,7,2,-2,-1,-2
1517145319152737,1,1,-2,-3,-1,-3,0,0
1517145319152737,-6,-16,-11,-1,0,-2,-1,-2
1517145319153696,-1,-10,14,-5,-4,-3,-1,-2
1517145319153696,3,15,-5,0,1,2,0,1
1517145319174701,-2,-8,-1,-1,-1,-2,-1,-1
1517145319174701,-3,-11,-4,7,-1,0,0,-2
1517145319175700,2,4,3,-1,5,0,-1,0
1517145319175700,2,6,8,2,-2,0,0,-1
1517145319189726,-4,-15,-30,-1,0,-1,-2,-3
1517145319189726,-4,-12,3,1,-2,-2,-3,-3
1517145319189726,-3,-6,2,-17,-7,-3,-2,-2
1517145319189726,1,2,22,-2,0,0,1,1
1517145319212762,1,9,-6,8,-2,-1,-1,0
1517145319212762,-1,7,-7,-11,-1,0,-2,2
1517145319213725,-2,-14,-6,10,-1,0,0,-1
1517145319213725,-1,3,-3,6,0,0,0,-2
1517145319234758,2,-1,-6,-8,-1,0,-1,0
1517145319234758,-1,6,-10,-11,-4,-2,-1,-2
1517145319235743,2,12,36,4,1,1,-1,1
1517145319235743,-3,-23,-44,-3,-5,-4,-4,-2
1517145319257778,-1,8,10,6,4,2,1,0
1517145319257778,-1,4,-2,-4,-1,-1,-2,-3
1517145319258763,9,3,8,-1,-1,-1,0,-1
1517145319258763,-6,-10,5,-3,0,1,1,0
1517145319273785,-3,15,-9,1,-3,-1,-2,-5
1517145319273785,1,-6,-6,2,-2,-3,-2,0
1517145319274774,0,6,-16,-5,-1,-2,-1,-1
1517145319274774,1,-12,9,-10,-3,-1,-1,0
1517145319294816,-2,-5,-5,-2,1,-1,-1,1
1517145319294816,-5,4,47,-4,-5,-2,0,-2
1517145319295822,-4,-13,-8,11,-2,0,-1,0
1517145319295822,7,28,-3,0,3,0,0,0
1517145319308795,-10,-44,-8,-5,-3,-2,-1,-2
1517145319308795,-5,2,-2,4,0,-1,-1,-1
1517145319316799,-2,-10,-4,2,2,0,-1,-1
1517145319316799,-1,9,-12,-3,-1,0,1,0
1517145319332811,5,12,29,3,-4,-2,0,1
1517145319332811,-2,0,-6,-12,-1,-1,0,-1
1517145319333812,-7,-4,-11,0,-2,-3,-2,-4
1517145319333812,0,3,-7,-5,-1,-2,-2,-2
1517145319354882,-2,-5,3,1,1,-2,0,-1
1517145319354882,0,-5,-14,-5,-2,-2,0,-1
1517145319355845,1,3,4,7,-1,0,0,1
1517145319355845,-3,-3,-5,8,-5,-3,-2,-3
1517145319368892,-2,0,8,-8,1,-1,-2,-2
1517145319368892,1,1,17,-6,2,-1,-1,1
1517145319376843,0,12,-22,-5,-2,0,-1,-1
1517145319376843,-9,-60,7,-2,-3,-3,-1,-3
1517145319392853,0,11,-2,1,-3,-2,-1,-1
1517145319392853,4,20,-6,8,1,-1,0,1
1517145319393860,1,-19,9,-2,0,-1,-1,-1
1517145319393860,0,28,9,-1,-1,0,-1,2
1517145319414925,-4,-22,-29,-4,-4,-2,-2,-1
1517145319414925,1,6,-1,-2,0,0,-1,-2
1517145319415873,-1,-2,-10,1,-1,-1,-2,-2
1517145319415873,-2,2,11,-3,-1,-2,-1,0
1517145319428919,2,10,10,6,0,0,-1,0
1517145319428919,-1,-3,-16,-8,0,-1,-1,-1
1517145319437889,-2,-1,15,-2,-3,-2,-1,-1
1517145319437889,-1,4,-2,3,2,1,0,-1
1517145319452952,-4,2,6,2,-2,-2,-2,-4
1517145319452952,-1,-5,1,-5,-2,-2,-2,1
1517145319453908,2,-12,-12,-8,-2,-3,1,-2
1517145319453908,-6,-6,6,5,0,0,-2,-2
1517145319474919,-2,11,11,0,2,0,0,2
1517145319474919,-1,-1,-12,-4,-2,-2,-1,-2
1517145319475912,1,3,-9,-1,1,0,-1,-1
1517145319475912,9,37,3,0,-4,0,0,0
1517145319488976,-1,10,1,-3,0,1,-1,-2
1517145319488976,-4,-6,7,6,-1,1,0,0
1517145319496984,-5,-7,-25,1,-1,-3,-1,-1
1517145319496984,0,-3,-18,-2,-3,-2,-1,-2
1517145319512967,2,16,49,3,2,1,1,-1
1517145319512967,0,-32,-61,-7,-4,-1,-1,-1
1517145319512967,2,5,-2,-1,1,1,0,0
1517145319512967,-4,-16,-5,-7,-2,-3,-3,-1
1517145319535954,-2,-7,3,-7,-4,-3,0,-1
1517145319535954,-2,-3,20,7,-2,0,-1,-1
1517145319536956,-1,0,-2,-4,1,-1,-2,-1
1517145319536956,0,-1,-15,-6,0,0,-1,0
1517145319548966,-2,-8,-10,-1,-3,-2,-2,0
1517145319548966,0,6,19,3,-1,-2,-2,-1
1517145319557023,-3,0,-17,4,-4,-2,-1,-1
1517145319557023,1,5,19,-1,0,-1,0,0
1517145319573034,2,2,2,-5,2,1,0,-1
1517145319573034,1,-4,-31,4,-2,-2,0,-1
1517145319573034,-11,4,15,-11,-4,-1,0,0
1517145319573034,2,-13,-8,-1,-1,-1,-1,-2
1517145319595020,-2,15,0,3,0,0,-1,-1
1517145319595020,1,6,12,5,1,0,0,0
1517145319595999,-1,-10,-1,2,1,0,-1,-2
1517145319595999,-3,3,39,0,0,-1,-1,-1
1517145319609007,-2,-13,-59,-10,-4,-2,-2,-1
1517145319609007,2,11,12,0,1,1,-1,0
1517145319617067,0,9,6,-1,-3,-2,-2,-1
1517145319617067,5,4,-8,12,-1,-1,-1,1
1517145319631024,-5,-12,6,-11,-2,-1,-1,-1
1517145319631024,-2,-2,3,0,1,-2,0,-1
1517145319640036,-2,-6,-14,6,0,1,-1,-1
1517145319640036,-7,3,11,-16,-5,-2,-2,-3
1517145319655056,2,-1,9,4,3,1,1,-1
1517145319655056,-5,-10,-18,-10,-7,-4,-2,-2
1517145319656042,-1,1,0,3,3,0,0,-1
1517145319656042,-2,6,-3,3,0,-1,0,-1
1517145319678061,2,0,-10,4,-2,0,0,0
1517145319678061,-2,-2,11,-5,0,0,-2,-1
1517145319679056,1,-4,17,0,-3,-2,-2,-2
1517145319679056,-1,-5,-17,0,0,0,-2,0
1517145319691081,-1,-9,-2,-4,-2,-2,-1,-1
1517145319691081,-3,-1,-1,0,0,-2,-1,-1
1517145319700088,0,6,-5,0,-2,-1,-1,-1
1517145319700088,4,6,-25,-4,-1,-2,-2,-1
1517145319722103,-3,-21,32,4,-1,0,-1,1
1517145319722103,-8,-26,29,-1,-1,-1,0,-2
1517145319724090,-1,-5,-10,-8,-3,-2,-3,-2
1517145319724090,2,11,9,3,1,-1,-1,-1
1517145319738098,1,2,-33,-2,-2,-1,-2,-2
1517145319738098,2,3,13,0,-1,0,-1,0
1517145319739099,-2,1,1,-1,0,-2,2,0
1517145319739099,-2,-10,11,1,0,0,1,-1
1517145319751124,-1,0,5,3,-1,0,-1,0
1517145319751124,-1,2,-3,-7,-2,-2,-2,-3
1517145319760115,-2,-1,-8,-2,-2,-1,-2,-1
1517145319760115,-2,3,-16,3,-1,-1,-2,0
1517145319776126,-1,-2,28,-8,-3,-2,-1,-3
1517145319776126,-1,1,-25,1,1,0,-2,-1
1517145319777126,2,-2,0,-1,-1,-2,-1,0
1517145319777126,-2,-4,8,4,0,-2,1,-1
1517145319797144,5,-7,-6,5,0,0,0,0
1517145319797144,-7,8,-7,-14,-1,0,0,-1
1517145319799143,1,11,6,-2,-3,-1,-1,-2
1517145319799143,-7,-5,-1,0,-3,-1,-2,1
1517145319811173,3,8,-20,10,2,2,2,2
1517145319811173,4,9,2,-22,0,-1,-2,-2
1517145319820158,2,3,9,-3,-4,-2,-1,0
1517145319820158,-3,-9,25,2,0,-3,-2,-3
1517145319835222,2,20,5,6,-1,-1,-2,-1
1517145319835222,2,-12,-18,4,-1,0,0,0
1517145319837191,-4,-8,1,-8,-1,0,0,-3
1517145319837191,1,0,0,-5,-2,-2,-1,-1
1517145319857236,-2,0,14,1,0,-2,0,-2
1517145319857236,0,-1,1,8,1,-1,-1,-1
1517145319859185,-2,-7,-1,1,0,0,-1,0
1517145319859185,-1,-5,-8,1,0,1,0,-1
1517145319872196,-3,-4,0,-8,-1,-2,-2,-1
1517145319872196,3,7,-9,3,-1,-2,-1,0
1517145319879201,-5,-17,-14,-1,-3,-2,-2,-2
1517145319879201,-6,-17,-3,-6,-3,-3,-2,-3
1517145319895228,-4,-12,-32,-16,0,0,-3,-2
1517145319895228,-1,1,17,-3,-4,-2,-1,-2
1517145319896219,-4,-20,-22,8,2,0,0,0
1517145319896219,6,34,6,-8,-2,-1,0,0
1517145319917283,1,-18,-3,4,-2,-1,-2,-2
1517145319917283,-8,-34,-2,1,-3,-1,0,-1
1517145319919231,-3,6,38,-6,-5,-2,-2,-1
1517145319919231,1,-13,-51,-5,0,0,0,-2
1517145319932290,-1,27,16,1,-3,-1,-1,0
1517145319932290,1,3,-25,0,-1,0,-2,-1
1517145319939244,0,14,23,4,5,0,0,0
1517145319939244,-2,-12,-31,2,0,0,-2,-1
1517145319955271,-2,4,16,-19,-6,-3,-1,-2
1517145319955271,-1,-9,3,-1,-2,-4,-1,-1
1517145319956253,1,12,6,4,-4,-2,-2,-1
1517145319956253,-3,-1,2,2,2,1,0,-2
1517145319977268,-1,-3,-14,2,-1,0,0,-1
1517145319977268,-3,-4,-7,2,-1,-1,0,1
1517145319979269,1,13,-3,-1,-1,-1,-2,1
1517145319979269,-1,-7,-14,-3,0,-1,0,0
1517145319992280,0,7,16,1,-1,0,0,0
1517145319992280,-3,8,-5,1,-1,-1,0,-2
1517145319999287,-3,-29,3,0,2,-2,-2,-3
1517145319999287,-1,-7,25,-1,-3,-2,-2,0
1517145320015351,-4,-8,-61,2,-1,-1,0,-1
1517145320015351,-2,7,-25,-6,-3,-2,-1,-1
1517145320016331,3,10,13,-5,-2,0,1,0
1517145320016331,-1,-7,27,2,0,-1,-1,-2
1517145320037345,-1,-7,16,3,-1,-3,-2,-2
1517145320037345,4,14,10,6,1,0,-1,0
1517145320039315,5,6,-10,2,-1,1,-1,0
1517145320039315,-5,-9,-27,-9,-4,-2,-2,-3
1517145320052327,-7,-9,-1,-3,-2,-1,1,-2
1517145320052327,-1,2,16,4,1,1,-1,-3
1517145320060328,-1,0,-3,-6,-1,-1,-1,-1
1517145320060328,2,10,11,-13,-3,-2,-3,-1
1517145320075338,0,-5,-17,0,1,-2,-1,1
1517145320075338,-3,-6,1,1,-2,-2,-2,-1
1517145320076372,2,13,-1,3,-1,-1,2,1
1517145320076372,0,5,0,2,1,1,-1,1
1517145320097406,0,6,33,2,-2,0,-1,-2
1517145320097406,1,0,-20,-2,0,0,0,1
1517145320099357,-2,-4,-12,-3,-2,-1,-1,-2
1517145320099357,-3,-5,-1,1,-2,-1,-1,-2
1517145320111416,0,-1,-1,-2,-1,0,-1,-1
1517145320111416,2,-9,29,7,-1,-1,-3,-3
1517145320120387,-3,3,-18,-2,0,-1,-1,0
1517145320120387,-2,6,-12,-5,0,-2,1,-2
1517145320142439,-2,-11,8,-2,0,-2,-2,-3
1517145320142439,-2,-3,-16,-5,-2,1,-1,0
1517145320144389,8,-3,-1,1,-1,1,2,1
1517145320144389,-6,-1,22,4,0,0,-1,1
1517145320157413,1,-5,-28,-7,-2,-2,-2,0
1517145320157413,-4,9,16,0,-2,-1,0,-3
1517145320159397,-5,-19,-16,-3,0,-1,-2,-3
1517145320159397,4,16,-9,-4,-2,0,0,-1
1517145320171406,-3,-24,8,4,2,0,-1,-1
1517145320171406,3,12,-5,-2,-1,0,0,1
1517145320180412,-2,3,5,-1,-2,-1,-1,-3
1517145320180412,0,-6,1,4,2,0,0,-1
1517145320195476,0,6,-10,-1,-1,-2,-2,-2
1517145320195476,1,-3,2,-4,-1,-1,0,-1
1517145320196427,-7,-4,-9,-4,-1,0,-2,-1
1517145320196427,1,-2,4,9,-3,-1,-1,0
1517145320217493,0,8,-1,-15,0,0,0,0
1517145320217493,-2,-4,8,-2,-1,-2,-1,0
1517145320219442,0,9,-3,1,-4,-2,-1,-1
1517145320219442,-2,-12,-23,3,1,-2,0,-2
1517145320231505,-1,-3,-1,8,-3,0,-1,-1
1517145320231505,-4,10,20,-11,-1,-3,0,-2
1517145320240456,-1,-3,-19,2,1,0,-2,0
1517145320240456,-1,-5,16,-7,-4,-2,-2,-2
1517145320255502,0,4,25,5,0,-2,0,0
1517145320255502,-1,-6,-38,-5,-1,-1,-1,-2
1517145320257468,2,0,16,11,2,1,0,-2
1517145320257468,-2,12,11,-6,-1,-1,-3,-5
1517145320277535,0,-11,4,-6,-3,0,5,12
1517145320277535,3,4,9,4,-2,-1,2,0
1517145320279485,-5,19,-12,-4,-1,-1,-3,-4
1517145320279485,5,-12,2,1,2,2,2,10
1517145320291495,-4,18,-6,0,-2,-5,-6,-7
1517145320291495,-3,-10,-10,1,-2,-1,0,-2
1517145320300500,4,0,14,-1,-2,-1,1,3
1517145320300500,0,-21,-3,-2,-2,0,-1,-4
1517145320315563,0,-1,-11,-2,0,0,1,-1
1517145320315563,0,12,5,3,0,-2,-2,-2
1517145320316510,-4,-9,6,-3,-2,-2,-3,-3
1517145320316510,1,6,8,-2,0,-2,-2,-1
1517145320337579,-5,-5,-16,-3,0,-1,-1,-1
1517145320337579,0,-9,0,1,0,0,-2,-3
1517145320339528,-4,-12,-27,-9,-5,-4,-3,-3
1517145320339528,1,8,0,0,0,-1,-1,0
1517145320351589,-1,-16,4,2,-2,-2,0,-2
1517145320351589,-1,10,17,-3,-2,-1,-3,0
1517145320360540,3,6,-2,1,0,-1,1,1
1517145320360540,-10,-12,-3,-4,-3,-2,-2,-4
1517145320375552,0,5,-7,0,0,0,-2,-4
1517145320375552,0,0,-19,-1,0,1,0,0
1517145320376557,0,-5,19,-1,-2,-2,-2,-1
1517145320376557,-1,2,-4,22,0,-1,-1,-1
1517145320397567,-1,10,3,-12,1,0,-1,-1
1517145320397567,-1,-5,-7,-16,-1,0,0,0
1517145320399568,-5,-19,-25,-9,-5,-4,-1,-4
1517145320399568,0,16,11,-8,1,0,0,2
1517145320411575,1,1,-17,13,-1,-1,-2,0
1517145320411575,0,0,-2,4,-1,-1,-1,0
1517145320420586,3,0,22,1,1,-1,0,-1
1517145320420586,-3,-3,-16,-3,-2,-1,-1,-1
1517145320435598,1,8,-23,-1,-2,-1,-1,-1
1517145320435598,-1,-7,30,4,-1,-1,-2,-1
1517145320436611,-1,5,3,-1,0,-1,-1,0
1517145320436611,1,4,-21,-7,-1,-2,-1,-1
1517145320457627,-2,-28,26,2,-1,-1,-2,-1
1517145320457627,-6,-11,-30,-4,-3,-3,-3,-2
1517145320459625,-2,1,5,-1,-3,-2,-1,-3
1517145320459625,4,15,25,1,-1,-1,-1,1
1517145320471618,1,19,-33,-9,-3,-2,-1,-2
1517145320471618,-3,-15,-36,-3,-2,-2,-1,-2
1517145320480628,0,-1,-12,0,1,-1,0,-1
1517145320480628,2,-6,66,0,1,1,-2,-1
1517145320494638,-2,9,-37,-2,-2,-2,-2,-2
1517145320494638,-2,-6,22,3,0,-1,0,-1
1517145320502643,-6,-7,2,12,-4,-3,0,0
1517145320502643,0,-4,-13,-11,2,1,-1,-1
1517145320517706,1,22,33,-8,-3,-1,-1,0
1517145320517706,2,-5,-3,9,4,2,-1,1
1517145320519654,-1,-9,-8,-12,-3,-1,-3,-1
1517145320519654,-3,-3,-27,7,2,-1,-2,0
1517145320541668,0,-18,8,-5,-6,-3,-2,-2
1517145320541668,-2,6,-4,1,0,-1,0,0
1517145320542684,0,1,27,5,-2,0,-2,-1
1517145320542684,-5,-1,-8,-2,-4,-3,-1,-3
1517145320554731,-2,-12,-11,3,1,0,-1,-2
1517145320554731,4,13,27,6,3,1,0,0
1517145320556692,-3,-8,-17,-5,-3,-3,-1,-1
1517145320556692,-1,1,-26,-5,0,-1,-1,-1
1517145320577711,-4,-10,1,0,-2,-3,0,-2
1517145320577711,-3,2,43,4,-1,-2,-2,-2
1517145320579696,2,8,-16,0,2,2,0,0
1517145320579696,-3,-7,-5,-1,-4,-3,-2,-1
1517145320600763,-2,-5,2,-7,-1,0,0,-1
1517145320600763,-2,1,-5,-1,-2,-2,0,0
1517145320602715,-1,-1,3,-2,2,-2,0,-1
1517145320602715,2,-9,-4,1,-3,-1,-1,-1
1517145320614722,-1,4,5,2,0,0,-2,-1
1517145320614722,-3,-5,-21,-3,2,-1,-1,-2
1517145320616722,-2,-6,8,-5,1,0,-2,-1
1517145320616722,-1,2,-2,3,0,0,1,-1
1517145320644742,2,4,23,0,-2,0,-1,0
1517145320644742,-6,-3,-23,-5,-4,-1,0,-2
1517145320646743,2,4,2,2,0,-1,0,-1
1517145320646743,-2,-2,4,-3,-1,-1,-1,-1
1517145320661790,-1,-4,-2,2,0,-1,-2,0
1517145320661790,0,-1,-2,-4,-3,-1,-2,-1
1517145320662788,0,2,1,0,1,0,-1,-2
1517145320662788,-3,-11,-9,-5,-2,-2,-1,-2
1517145320674763,1,6,2,5,2,0,1,-1
1517145320674763,1,-7,-7,1,1,-1,-1,-1
1517145320681771,-7,3,9,-11,-7,-6,-3,-4
1517145320681771,-1,-2,3,-1,-1,-1,-2,-2
1517145320697832,-3,-13,-12,1,-2,-2,-1,-1
1517145320697832,1,2,17,1,1,0,1,0
1517145320698817,2,1,-1,3,1,1,-1,0
1517145320698817,-1,-2,-10,-6,1,-1,-1,-2
1517145320719848,-1,3,1,-1,-1,0,-1,2
1517145320719848,0,0,-9,-3,-3,-2,0,0
1517145320721799,-1,-4,7,-1,-1,1,0,-1
1517145320721799,1,2,-13,2,-2,-1,-1,-2
1517145320734807,-1,1,5,8,-1,-1,0,-1
1517145320734807,0,-3,2,0,-1,-4,-3,-3
1517145320740811,3,3,-6,-4,2,0,0,2
1517145320740811,4,6,50,-4,3,2,2,3
1517145320757840,-15,-45,-73,-32,-12,-8,-5,-7
1517145320757840,-1,8,36,8,-4,-1,0,-1
1517145320758824,0,2,-3,4,-1,-1,-1,0
1517145320758824,2,6,-6,5,1,1,0,2
1517145320779837,5,3,24,10,2,2,1,-1
1517145320779837,-2,0,-3,-6,-1,0,0,-2
1517145320781839,0,-3,-5,-10,-1,-1,-1,-3
1517145320781839,-6,-7,-26,-5,-3,-3,-1,-2
1517145320794852,-1,8,-34,-6,0,-2,-1,1
1517145320794852,-1,5,9,2,0,-2,-1,-2
1517145320800853,-6,-9,18,2,-4,-3,-1,-2
1517145320800853,-3,-5,-4,-4,-2,-1,-2,-1
1517145320817866,2,5,22,3,1,-1,0,0
1517145320817866,-2,4,-13,-2,0,0,-1,-1
1517145320818865,-3,-12,-22,-2,1,-1,0,-2
1517145320818865,-3,11,7,2,-3,-2,-1,-2
1517145320839888,0,10,-10,1,2,-1,1,2
1517145320839888,0,6,20,-5,-2,0,-2,-1
1517145320841882,-1,-35,-24,-1,1,1,-1,-1
1517145320841882,-6,-25,-7,2,-1,-1,-2,-3
1517145320854892,-1,14,14,0,1,0,-2,-2
1517145320854892,-1,-1,-15,-11,-4,-2,-2,-1
1517145320860895,1,7,8,5,-2,0,-1,0
1517145320860895,-3,-12,-17,1,1,0,0,-2
1517145320877907,0,18,56,1,-1,0,1,1
1517145320877907,-3,-12,11,-1,-2,-3,-1,-1
1517145320878908,-4,-8,-39,-7,-3,-3,-2,-1
1517145320878908,-2,-5,-7,-3,-1,-1,-1,0
1517145320900923,2,1,7,5,2,0,-1,3
1517145320900923,2,8,5,-3,-2,-1,-2,-1
1517145320901923,-3,10,27,5,2,1,0,1
1517145320901923,2,5,3,1,0,1,-1,-2
1517145320913931,-8,-23,-35,-9,-6,-3,-2,-2
1517145320913931,3,1,-7,2,2,0,0,-1
1517145320922939,-3,10,5,2,-1,-1,-1,2
1517145320922939,0,6,15,-4,-1,1,-1,1
1517145320937949,3,1,-9,3,1,1,1,4
1517145320937949,-5,-9,45,-6,-3,-3,-2,-12
1517145320938950,1,12,-8,3,2,-1,0,0
1517145320938950,-1,4,-15,-4,-3,-2,-2,-1
1517145320959973,1,-1,14,-1,0,-2,-2,-2
1517145320959973,-2,-12,-11,3,2,1,0,2
1517145320961966,1,3,-22,-4,0,-1,-1,-1
1517145320961966,-1,-3,-15,-4,-2,-2,-2,-2
1517145320974975,0,0,11,-4,-3,-1,-2,-2
1517145320974975,-3,-3,-11,-6,-3,-1,0,4
1517145320980979,1,7,20,0,-1,0,-1,-2
1517145320980979,-8,-4,-13,4,0,0,0,-2
1517145320997991,-2,-3,1,1,-1,-1,-2,-3
1517145320997991,1,3,-20,-5,-1,0,-2,1
1517145320998992,-1,-7,-1,-2,-1,0,-1,-2
1517145320998992,2,1,5,1,-2,-1,-1,-1
1517145321028014,-1,-4,-6,-1,-1,-1,0,-2
1517145321028014,-1,2,-33,4,-1,-1,0,0
1517145321029013,0,-7,34,-11,-5,-2,-2,-1
1517145321029013,-1,16,41,0,-1,-1,0,0
1517145321034018,-5,-29,-20,1,1,0,1,-2
1517145321034018,-2,-21,-46,-4,0,-2,-1,0
1517145321041023,2,21,28,8,0,1,-1,-1
1517145321041023,-3,-8,-70,-15,-4,-3,-2,-3
1517145321058035,-1,18,27,0,-1,0,-4,0
1517145321058035,0,-9,-7,-1,-2,-2,0,-1
1517145321059043,1,-4,3,1,0,-1,-2,-1
1517145321059043,2,-3,36,4,-1,-1,-1,-1
1517145321080049,0,4,-22,4,2,0,0,-1
1517145321080049,-1,6,13,-5,-3,0,-1,1
1517145321082051,2,2,-27,-1,-2,-2,-2,-2
1517145321082051,-4,-4,21,1,-1,-1,-1,-1
1517145321094062,1,3,-40,-4,-1,0,-1,-1
1517145321094062,0,6,43,4,0,-2,-2,-1
1517145321103066,-1,-6,-15,-2,0,0,-1,0
1517145321103066,1,2,0,4,-1,0,0,-1
1517145321118079,-3,-7,-23,-9,-1,-3,-1,-2
1517145321118079,-1,-2,1,1,-1,0,-1,-1
1517145321119078,-3,-1,-4,1,0,-2,0,-2
1517145321119078,0,1,7,0,0,-1,-1,-1
1517145321141093,-3,-2,21,-2,-2,0,-1,-3
1517145321141093,-1,-5,-16,-2,-1,-1,-2,-1
1517145321142094,-1,-5,-20,-7,-2,-3,0,-1
1517145321142094,-1,-1,4,2,-2,-1,-2,-2
1517145321154121,2,-1,-10,1,1,1,-1,-1
1517145321154121,-2,2,24,-4,-2,-1,-1,-1
1517145321163109,-2,-1,18,2,-2,-1,-2,0
1517145321163109,0,-4,-11,-2,0,-1,-1,0
1517145321177118,1,0,6,0,-1,0,0,-2
1517145321177118,-1,-3,-11,0,-2,-2,-1,0
1517145321179120,-1,0,-10,-1,0,0,-2,-1
1517145321179120,0,0,14,-3,-2,-1,-1,-1
1517145321200134,3,-2,-18,-1,-2,-2,-2,-2
1517145321200134,0,4,-6,-2,-2,-1,-1,-2
1517145321202136,0,4,4,-1,-3,-2,-1,-1
1517145321202136,-2,-8,8,-9,-2,-2,-1,-2
1517145321214145,-3,2,41,1,1,0,-2,0
1517145321214145,-2,-3,-32,2,-1,-1,0,0
1517145321223151,-3,-5,-30,-3,-3,0,-2,0
1517145321223151,2,6,27,4,0,-1,-2,1
1517145321237161,-1,-2,6,1,-1,-2,-1,-2
1517145321237161,1,0,3,-1,0,-1,0,0
1517145321239163,1,3,10,0,1,-2,0,0
1517145321239163,-2,-3,-25,-1,-1,-1,-1,-1
1517145321260178,-4,-2,7,-2,-2,-2,0,-2
1517145321260178,-3,-3,-7,1,0,0,-1,-1
1517145321261181,2,3,1,-1,-1,-1,0,-1
1517145321261181,0,-4,-24,-1,-2,0,0,-2
1517145321274187,1,-1,4,-2,-2,-2,-1,-1
1517145321274187,-7,0,18,3,0,-1,0,-1
1517145321282193,-1,-4,2,-3,-1,0,-1,-1
1517145321282193,0,1,-7,-1,-1,-1,-2,-1
1517145321305210,-1,-1,3,2,-1,-1,0,0
1517145321305210,1,1,-19,0,0,-1,-1,0
1517145321306211,-2,-3,8,0,-1,-1,0,-1
1517145321306211,-3,-3,-7,-2,-1,-1,0,-1
1517145321320220,4,4,-11,3,-1,-1,0,0
1517145321320220,-3,5,26,-8,-3,-3,-2,-1
1517145321322222,-7,-17,-69,-11,-4,-2,-2,-3
1517145321322222,2,8,23,3,1,-1,-1,1
1517145321333230,-3,-5,16,0,0,-1,0,-2
1517145321333230,2,2,34,2,-1,-1,-3,-2
1517145321342236,-1,3,14,-2,-2,-1,0,-2
1517145321342236,-1,-6,-25,-3,-2,-2,-3,-1
1517145321357247,-1,0,-8,3,-1,0,-2,1
1517145321357247,1,0,-27,-8,1,0,-1,-1
1517145321359248,-2,-1,20,5,1,-1,-1,-1
1517145321359248,1,9,39,5,1,0,0,0
1517145321380263,-1,2,-10,-1,0,0,0,0
1517145321380263,-6,-33,-1,-5,-3,0,-2,-3
1517145321386267,-6,0,-23,-6,-6,-5,-4,-4
1517145321386267,-2,-7,15,-10,-1,-2,0,-1
1517145321393271,2,20,33,3,1,1,1,1
1517145321393271,-1,-11,-37,12,-3,-1,0,-1
1517145321402278,5,-2,37,5,4,1,1,2
1517145321402278,-1,7,-37,-6,-2,-2,-2,-1
1517145321417308,-5,-15,14,-9,-4,-3,-3,-2
1517145321417308,0,8,-13,0,-1,0,0,-1
1517145321419290,2,7,7,2,-2,0,-1,0
1517145321419290,2,1,-3,5,1,0,-1,-1
1517145321440307,1,-2,-4,-6,0,-1,0,1
1517145321440307,1,9,-4,0,-1,-1,-2,1
1517145321446309,-2,-4,22,3,-2,-1,0,-2
1517145321446309,0,2,-6,-3,0,-1,0,-1
1517145321453314,-1,-14,-29,-6,-4,-3,-3,-2
1517145321453314,-1,-5,18,-1,-1,-3,-1,-1
1517145321462322,-6,7,-16,-2,0,-1,0,0
1517145321462322,2,7,-2,-2,-2,-1,0,-1
1517145321477331,-2,-5,2,4,-1,-2,-2,-4
1517145321477331,0,2,-26,-3,0,-1,-1,1
1517145321479336,4,4,31,1,2,2,0,0
1517145321479336,-5,-9,13,-6,-4,-2,-1,0
1517145321500347,-1,8,-11,2,0,-1,-1,0
1517145321500347,0,1,-19,-2,1,1,-1,1
1517145321501357,-2,-16,-11,-4,-3,-3,-2,-1
1517145321501357,-1,0,12,0,-3,-1,-2,-2
1517145321522365,0,3,-5,-5,0,0,0,2
1517145321522365,-3,-8,1,-3,-1,-1,-2,-4
1517145321524367,1,3,1,8,2,0,0,1
1517145321524367,-1,-3,0,1,-1,-2,-1,0
1517145321545420,-5,-6,-50,-9,-4,-2,-1,-2
1517145321545420,1,9,15,2,0,1,0,1
1517145321546382,-3,-7,6,-10,-4,-3,-2,-2
1517145321546382,-3,-3,-12,1,-1,-1,-2,-3
1517145321560433,1,-1,11,1,-2,-1,-2,1
1517145321560433,0,4,8,2,1,0,0,-1
1517145321561393,-3,-3,-19,-3,-2,-2,-1,-3
1517145321561393,-4,-3,11,-1,-1,-1,-1,-1
1517145321583456,2,10,22,3,-1,0,-2,-2
1517145321583456,-3,-11,-1,-6,-3,-2,-1,-3
1517145321584408,7,28,-8,2,0,0,0,-1
1517145321584408,-3,-18,-6,0,-1,-2,0,0
1517145321597471,3,14,48,8,3,1,3,7
1517145321597471,-1,-6,-29,-8,-4,-3,-3,-11
1517145321599422,-2,6,22,-1,-1,-1,-1,0
1517145321599422,-4,0,13,-1,-3,-1,-2,-4
1517145321620488,-4,-11,13,3,-2,-2,-2,-2
1517145321620488,4,13,28,-3,-1,0,0,8
1517145321621438,-2,-8,-12,1,-1,0,-1,-3
1517145321621438,0,2,-34,-4,0,0,-1,-3
1517145321642503,-3,-5,25,3,1,1,-1,-3
1517145321642503,3,18,14,1,-1,-1,2,4
1517145321644450,0,-7,-37,-7,-2,-1,-1,-3
1517145321644450,1,1,10,5,1,1,0,2
1517145321657463,-6,-10,-34,-6,-3,-1,-3,-3
1517145321657463,-3,-6,31,-3,-2,-2,-1,-2
1517145321663467,-1,-2,-13,2,1,0,-2,1
1517145321663467,2,14,3,4,-1,0,0,-1
1517145321680476,-2,-29,-13,-13,-3,-3,-1,-2
1517145321680476,-4,4,-29,3,1,0,-2,-4
1517145321681477,-3,-6,31,-4,-2,-2,-1,-2
1517145321681477,3,6,15,-1,-2,-1,-1,1
1517145321702546,-4,-14,-61,0,-1,-1,-2,-3
1517145321702546,-2,1,32,-3,-4,-2,-2,-2
1517145321704496,-2,0,9,2,0,0,-1,0
1517145321704496,5,-1,-15,-10,-2,-2,-1,-2
1517145321717557,-5,3,-15,-3,-2,-3,-2,-3
1517145321717557,-2,-4,15,4,2,0,-1,-2
1517145321723561,0,-6,-27,0,-1,0,0,0
1517145321723561,4,9,-10,0,1,0,3,14
1517145321740518,-3,-5,-9,-11,-6,-4,-5,-24
1517145321740518,-1,-2,31,2,0,-1,-2,-1
1517145321741519,2,2,-36,-4,0,0,-1,-3
1517145321741519,-10,-28,-38,-8,-6,-4,-4,-3
1517145321762534,2,9,3,3,1,1,1,5
1517145321762534,-2,-11,-5,0,-1,-1,0,0
1517145321764536,-2,7,22,-1,-1,-1,-1,-3
1517145321764536,-2,-7,-2,4,1,1,0,-2
1517145321777546,2,-5,-10,-1,-1,-2,-1,3
1517145321777546,-2,4,-5,-2,-1,0,-1,-3
1517145321783549,1,4,11,4,0,0,0,3
1517145321783549,-8,-20,-32,-4,-4,-3,-3,-6
1517145321799614,0,6,28,1,-1,0,1,0
1517145321799614,1,7,-14,5,0,0,-1,2
1517145321806619,-1,-7,-1,-12,-3,-2,-1,0
1517145321806619,1,9,4,5,4,0,-1,-1
1517145321823590,2,7,12,2,1,0,0,1
1517145321823590,-1,-6,-59,-5,0,0,-2,1
1517145321825578,-3,-7,47,-2,-3,-2,-3,-2
1517145321825578,-3,-14,3,-3,-3,-3,-1,-5
1517145321836640,1,2,3,6,2,1,1,5
1517145321836640,-2,1,-3,1,-2,-2,-1,-2
1517145321843594,-2,-9,4,1,-2,-2,0,4
1517145321843594,1,2,-73,-8,-2,-2,-4,-14
1517145321860639,-3,3,15,2,-3,-1,-2,0
1517145321860639,-1,-3,43,-1,-1,-1,-1,0
1517145321862606,-1,-2,-67,-2,-2,-2,-1,-2
1517145321862606,3,11,81,7,1,1,0,3
1517145321882621,-1,13,9,-2,-1,-1,-1,0
1517145321882621,-2,-16,-57,-6,-2,-2,-3,-4
1517145321884649,-2,1,24,6,-3,-3,-2,-1
1517145321884649,1,2,38,7,2,1,0,3
1517145321897684,4,15,-49,-2,3,2,0,-2
1517145321897684,-13,-35,8,-8,-9,-7,-3,-2
1517145321903688,3,16,64,1,0,1,-1,0
1517145321903688,-1,-7,-26,2,0,-1,0,1
1517145321920650,1,10,45,3,-1,-3,0,0
1517145321920650,5,8,-3,1,4,1,1,1
1517145321921650,-9,-28,-13,-21,-6,-3,-4,-7
1517145321921650,3,26,123,24,-1,0,0,1
1517145321942717,-8,-15,-76,-24,-6,-4,-3,-3
1517145321942717,4,13,57,6,-3,0,-1,-1
1517145321944663,-3,-8,-20,-6,-3,-2,-2,-2
1517145321944663,0,4,-30,-9,-1,-2,0,2
1517145321956725,0,-18,-37,10,4,1,1,1
1517145321956725,-4,-9,-38,-13,-1,-2,0,-1
1517145321963731,2,16,37,9,4,1,0,-1
1517145321963731,-1,-7,-37,6,-5,0,-1,1
1517145321979742,1,-3,59,3,4,2,-2,1
1517145321979742,0,3,-45,-11,0,-4,-3,-4
1517145321981690,-7,-7,-4,-15,-7,-5,-3,-2
1517145321981690,-4,-4,-24,-3,0,-2,-2,-3
1517145322002758,1,6,49,8,-1,0,0,2
1517145322002758,3,12,-4,15,2,4,0,2
1517145322004707,8,15,56,23,7,4,1,2
1517145322004707,-5,-12,-33,-17,-9,-2,-2,-3
1517145322016718,-9,-8,72,-5,-7,-7,-4,-5
1517145322016718,0,3,14,-23,-3,-5,0,0
1517145322031727,-1,-7,-72,6,4,-1,1,2
1517145322031727,5,16,45,1,6,3,0,2
1517145322040785,-7,-26,-12,3,-10,-4,-3,-4
1517145322040785,-2,-3,-24,-13,-3,0,-1,-2
1517145322046739,1,8,42,4,-3,0,-1,-2
1517145322046739,-4,-5,-30,-4,-4,-4,-4,-3
1517145322062801,6,16,12,8,0,2,1,0
1517145322062801,4,6,16,26,11,5,1,1
1517145322063782,-4,-11,-16,-21,-5,-3,-1,-2
1517145322063782,-3,-5,-39,-11,5,1,0,-3
1517145322075791,-4,-9,-62,-47,-18,-9,-3,-2
1517145322075791,2,13,70,28,-3,-4,-2,0
1517145322084764,3,-5,-32,-20,-2,-4,0,1
1517145322084764,0,5,76,35,-5,-2,-2,-1
1517145322099773,-16,-30,-50,-19,-24,-19,-12,-9
1517145322099773,2,9,-13,-16,-41,-13,0,0
1517145322101775,0,6,75,21,83,46,4,-1
1517145322101775,-6,-12,-54,2,38,-4,1,-2
1517145322122846,7,12,11,29,-30,-8,2,1
1517145322122846,14,30,98,-31,15,15,8,6
1517145322123825,-25,-70,-99,-16,-17,-11,-2,-9
1517145322123825,-7,5,33,-36,-22,2,-3,-2
1517145322135853,-4,7,23,13,-29,-8,-3,-1
1517145322135853,-11,-9,-20,-37,-72,-54,-16,-9
1517145322150829,17,23,1,40,75,10,-8,2
1517145322150829,6,-9,-8,5,16,34,10,2
1517145322159817,11,6,11,37,53,36,18,10
1517145322159817,3,-2,-4,30,22,15,8,3
1517145322161817,-17,-2,-23,-26,-41,-25,-6,-7
1517145322161817,9,-13,-17,-21,-49,-41,-22,-4
1517145322182852,27,25,26,-33,1,-13,21,16
1517145322182852,6,-10,-36,21,13,-38,3,12
1517145322183834,-4,1,-2,19,5,22,8,-20
1517145322183834,-44,-8,1,-5,-5,16,14,-5
1517145322195842,-1,-5,-13,-10,9,-17,3,-14
1517145322195842,-8,-10,-15,-4,14,-42,9,12
1517145322204851,20,21,9,-23,-44,16,4,18
1517145322204851,18,2,10,9,-19,-95,-1,6
1517145322219873,10,3,5,17,53,112,30,2
1517145322219873,18,-8,-18,3,19,11,4,-3
1517145322221863,-20,4,15,4,-28,-15,-11,-15
1517145322221863,-9,-5,-8,-17,-4,5,-3,0
1517145322242893,1,-3,-3,9,-15,-45,-29,-3
1517145322242893,3,-7,-3,-10,2,26,-4,-1
1517145322243877,-1,6,1,5,-3,-23,21,-1
1517145322243877,3,-4,-2,-2,19,25,2,-6
1517145322255903,-29,-9,-5,-3,-12,-29,-11,-1
1517145322255903,-10,-1,1,9,-1,45,-2,1
1517145322264892,3,0,-2,-3,-16,-13,-9,5
1517145322264892,3,5,12,16,1,-15,1,6
1517145322279920,-5,-1,-13,-21,20,13,-5,-6
1517145322279920,-9,-1,-24,-18,-15,-3,-6,-9
1517145322281921,-2,-6,7,-16,-1,-19,-7,-1
1517145322281921,7,7,13,14,-3,19,-2,-2
1517145322309922,2,3,3,6,-7,-6,-3,3
1517145322309922,-6,-7,-9,-11,21,9,-6,-8
1517145322311925,4,0,3,30,1,5,-8,2
1517145322311925,3,7,1,6,-3,17,-3,-1
1517145322326949,-3,1,-8,-10,-3,-7,-8,-3
1517145322326949,-6,7,19,-19,-2,-2,3,-4
1517145322327935,-3,-31,-81,-6,-9,2,1,-1
1517145322327935,12,-10,-8,-18,10,6,-2,1
1517145322338961,-6,2,46,11,-3,-7,-1,-2
1517145322338961,6,-2,8,22,-7,2,-9,-5
1517145322345966,21,14,23,-12,-4,-1,3,7
1517145322345966,2,20,0,17,8,-1,-11,-5
1517145322362973,-14,-32,-51,-21,-10,-2,-5,-6
1517145322362973,-13,-10,-1,12,2,9,1,-5
1517145322363979,-11,7,21,-3,-4,-3,0,2
1517145322363979,9,-11,-7,-7,-9,-10,1,4
1517145322375970,10,50,33,28,19,4,-7,-7
1517145322375970,-31,-58,-23,-24,3,18,3,-7
1517145322384976,13,23,-4,15,-8,-14,-9,3
1517145322384976,-23,-36,-11,-42,-17,10,8,-2
1517145322399004,-4,-33,-11,-19,-26,-26,-5,3
1517145322399004,6,41,-4,22,16,1,-3,-1
1517145322414014,-2,14,20,0,-13,-1,-7,-2
1517145322414014,-14,12,26,9,31,30,4,0
1517145322423021,-17,-32,-36,-12,-3,-3,5,-1
1517145322423021,-22,-10,-14,-20,-63,-46,-5,0
1517145322425004,4,-21,-9,1,26,18,0,-5
1517145322425004,27,27,8,21,35,12,-7,-7
1517145322436030,-22,7,-4,-1,8,1,-4,-10
1517145322436030,-14,-17,-19,-11,-4,10,0,-1
1517145322445019,9,13,16,-11,-16,-3,0,7
1517145322445019,12,-5,-5,0,-17,-14,0,3
1517145322459046,6,4,2,1,3,6,0,0
1517145322459046,14,1,6,-3,-1,-14,-7,-3
1517145322466050,-7,-1,0,-16,-29,-22,-4,2
1517145322466050,-8,-13,-14,-24,-63,22,10,1
1517145322482063,1,6,12,37,91,6,-11,-12
1517145322482063,9,18,15,19,32,22,32,11
1517145322484045,-15,-12,3,21,41,-7,28,-11
1517145322484045,0,9,4,7,-20,-30,-11,9
1517145322505079,1,2,-7,-23,-58,-10,-18,-2
1517145322505079,47,5,0,-1,-1,-16,-41,-10
1517145322507080,6,-3,-5,-10,-1,12,19,9
1517145322507080,6,-11,-7,-8,-4,-2,-35,-36
1517145322519071,17,13,7,-4,-6,8,16,35
1517145322519071,-28,-2,3,22,33,17,14,-10
1517145322526076,-52,-14,-10,-12,-26,-18,-15,-9
1517145322526076,-1,9,5,9,10,-9,13,18
1517145322542087,13,0,-5,-8,-6,-24,-21,5
1517145322542087,3,4,3,5,-1,7,22,-1
1517145322544089,13,4,2,-8,-9,30,10,10
1517145322544089,-25,-1,12,41,56,-72,47,-16
1517145322565121,-1,-2,0,-4,-11,27,21,0
1517145322565121,3,2,5,-10,-27,-6,-7,10
1517145322567123,0,2,-6,2,5,-17,-18,-12
1517145322567123,1,4,-11,-15,11,5,-10,8
1517145322587119,6,5,5,-14,-14,-2,-2,-2
1517145322587119,-4,-8,-22,6,-2,-21,-10,-3
1517145322589120,6,-4,3,-5,-2,14,-5,1
1517145322589120,-1,-8,-10,-17,-15,12,-12,-1
1517145322602149,-5,-2,7,7,-5,-4,-1,-6
1517145322602149,1,1,0,0,6,24,-5,-1
1517145322604130,2,-4,0,5,2,-5,-4,-3
1517145322604130,-4,-2,-5,-7,-10,12,-2,2
1517145322626147,0,-1,-2,5,7,2,4,0
1517145322626147,-3,-4,0,-1,0,-3,-2,-1
1517145322628150,5,-3,-6,0,-2,-2,-3,1
1517145322628150,-2,-4,7,1,-3,-2,-4,0
1517145322639211,3,10,4,3,-2,2,-2,-2
1517145322639211,2,3,12,10,5,-2,-5,-3
1517145322646215,-10,-33,-7,-14,-14,-13,-8,-6
1517145322646215,-2,2,-3,-5,5,29,6,4
1517145322662177,7,21,-1,20,5,3,2,0
1517145322662177,-15,-5,6,-11,-3,-4,-8,-5
1517145322670196,19,51,17,34,15,-12,-10,1
1517145322670196,-35,-70,-38,-37,-15,15,8,0
1517145322692247,13,16,4,22,-6,-13,-4,0
1517145322692247,-14,-11,-21,-27,-3,0,1,-6
1517145322694199,12,6,8,23,28,28,12,7
1517145322694199,-6,1,-20,-41,-24,-11,-14,-11
1517145322699202,7,-17,-18,-5,-5,0,2,0
1517145322699202,12,50,29,17,7,2,-11,-6
1517145322707260,-8,-10,-33,-20,-8,6,6,1
1517145322707260,-11,-37,-14,-4,4,10,7,2
1517145322722269,1,15,15,10,2,-1,3,2
1517145322722269,-2,-13,-2,8,-6,-14,-11,-2
1517145322724216,2,9,4,-24,2,2,-6,-3
1517145322724216,15,7,-10,1,0,-1,4,5
1517145322745233,-5,-11,8,-12,-12,-12,-5,-2
1517145322745233,4,-13,-1,7,-1,-3,1,0
1517145322746233,-6,-14,1,2,-3,0,-2,-2
1517145322746233,4,6,6,7,-2,-3,-9,-4
1517145322758243,-14,-9,-6,-21,-21,-19,-7,-9
1517145322758243,-5,-5,-10,-14,-14,-9,0,1
1517145322775255,1,-1,-1,-2,-22,62,7,5
1517145322775255,11,25,10,-8,13,-36,-6,14
1517145322782311,6,-2,-1,34,67,30,22,17
1517145322782311,-9,-5,-1,15,27,-65,-56,-4
1517145322784259,-16,-10,-4,-19,13,19,-12,-34
1517145322784259,-3,21,32,50,18,114,77,-7
1517145322806278,-10,-11,-7,6,34,-55,-12,-1
1517145322806278,0,-7,-4,-9,-63,25,-1,8
1517145322808275,9,1,-5,-10,-14,-51,-7,15
1517145322808275,13,2,-14,-33,-46,-119,-64,2
1517145322819288,-7,-12,-16,-32,-22,74,14,-19
1517145322819288,14,8,3,2,20,8,34,2
1517145322827345,0,-1,9,12,-3,-3,3,-2
1517145322827345,5,8,7,9,6,-28,-10,4
1517145322842300,-5,-8,-6,-14,-28,-33,-34,1
1517145322842300,-4,-5,-6,-6,2,1,18,2
1517145322844303,-15,-5,9,7,-10,0,-11,-17
1517145322844303,-8,-1,-30,-31,3,10,-1,-4
1517145322865370,-9,-1,1,6,5,10,-6,-3
1517145322865370,-6,-6,-10,-25,0,11,-1,-8
1517145322866354,2,-4,0,-1,-4,-13,13,6
1517145322866354,4,-4,7,28,7,1,-8,1
1517145322878379,-2,-9,1,-1,-19,-5,-5,-9
1517145322878379,8,1,3,8,6,20,20,6
1517145322887387,2,2,-7,-18,-5,-20,-8,5
1517145322887387,0,17,14,12,6,-1,-17,-6
1517145322902397,-4,-14,-34,-30,-9,12,16,2
1517145322902397,-10,-18,-3,10,4,4,-1,1
1517145322904347,-3,-2,-5,4,7,-10,-3,3
1517145322904347,-5,12,26,22,0,-1,-11,-10
1517145322925375,3,11,0,0,-5,-3,9,0
1517145322925375,-10,-34,2,-13,1,-2,-1,-2
1517145322926362,3,24,-1,-1,6,6,6,5
1517145322926362,-13,-41,-5,-2,-5,15,15,9
1517145322938422,0,11,14,9,-2,-8,-10,-7
1517145322938422,27,53,-1,27,6,-12,-13,3
1517145322947376,-26,-19,-7,-27,-4,0,-3,-8
1517145322947376,13,30,2,11,4,1,-3,2
1517145322962385,-9,-24,-21,-24,-21,-9,3,-2
1517145322962385,24,36,24,24,11,0,0,4
1517145322964387,14,-4,12,8,-8,-23,-15,-6
1517145322964387,18,28,49,16,-8,14,15,12
1517145322985456,-22,-45,-44,-34,1,18,5,-8
1517145322985456,3,23,29,23,36,21,14,6
1517145322986406,9,4,6,24,6,-10,-5,4
1517145322986406,-11,-10,-10,-22,-10,-8,-11,-10
1517145322998464,13,18,24,13,-10,-11,-5,4
1517145322998464,-11,-15,-16,-22,-16,-9,-7,-4
1517145323007420,0,-10,-12,-5,5,-1,2,1
1517145323007420,1,6,-1,2,-10,-3,-3,-3
1517145323022482,6,-2,1,-8,4,-1,5,14
1517145323022482,-23,-26,-28,-28,13,3,-20,-18
1517145323024432,4,-1,-5,-31,-93,-77,-11,9
1517145323024432,1,-5,-11,-4,89,35,-18,2
1517145323045498,2,24,35,81,53,-17,6,0
1517145323045498,-23,-9,16,52,52,98,3,-27
1517145323046448,3,4,20,3,10,71,40,8
1517145323046448,-6,-20,-56,-26,-2,-28,-2,-2
1517145323058458,2,10,29,-19,-37,-16,-36,-1
1517145323058458,14,9,18,-12,-16,-51,5,15
1517145323067464,-25,-35,-93,-19,-38,-36,-26,-27
1517145323067464,1,-3,62,-28,-42,11,-9,-8
1517145323082526,5,-3,-17,-16,-7,3,-15,-3
1517145323082526,14,6,5,-3,-24,-20,11,10
1517145323084476,12,19,39,24,34,34,2,2
1517145323084476,8,10,-15,9,1,-14,12,6
1517145323105541,4,14,77,-12,6,4,12,-1
1517145323105541,-9,-35,-83,-15,-24,-21,-1,2
1517145323106492,-4,15,52,4,9,15,4,5
1517145323106492,-12,-6,-41,18,17,2,-6,-7
1517145323118550,-12,4,55,8,-11,0,9,-6
1517145323118550,-4,2,9,-18,-21,1,-3,0
1517145323127505,-3,-10,-32,6,30,-5,-8,1
1517145323127505,-3,4,23,10,-14,-1,10,-4
1517145323142567,0,-1,-23,-13,1,12,6,1
1517145323142567,-1,-2,9,13,-3,-8,-1,1
1517145323144517,-5,-11,-45,-11,14,-6,-3,-5
1517145323144517,-7,-7,-25,-14,-14,-3,-1,-3
1517145323165533,1,-6,-52,-4,-4,1,2,1
1517145323165533,1,3,-2,-14,-7,-12,-3,-3
1517145323166535,2,6,32,18,9,11,10,4
1517145323166535,3,2,8,7,-13,-7,-2,-1
1517145323178592,-1,-13,-20,-11,5,1,-3,-5
1517145323178592,-1,-11,-22,-4,-10,-5,0,-3
1517145323187563,15,33,35,14,13,-1,-6,0
1517145323187563,-9,-23,-4,-11,1,19,13,6
1517145323202609,-1,-4,-24,13,-1,-10,-7,-8
1517145323202609,-1,1,7,-14,3,11,2,0
1517145323204559,-22,-38,6,-12,-8,-11,-8,-8
1517145323204559,-3,10,-1,-1,-2,-5,-5,-2
1517145323225577,5,-8,-5,2,-29,-25,1,5
1517145323225577,-3,-9,-33,-27,-4,-1,-7,-7
1517145323226573,4,8,3,9,12,1,-1,2
1517145323226573,0,-1,3,13,8,17,11,3
1517145323247641,-7,-3,-3,-8,3,8,-2,-4
1517145323247641,-2,-3,16,-4,-4,-18,-5,0
1517145323249592,4,0,-2,-2,-11,-5,-6,-1
1517145323249592,10,6,3,15,19,7,-1,-1
1517145323262652,11,9,-8,-2,8,2,5,3
1517145323262652,1,-3,8,-3,1,13,1,1
1517145323264635,9,-1,-7,-17,-39,-16,-1,11
1517145323264635,-3,-7,-2,-1,6,-28,-4,-3
1517145323285618,-5,1,-2,2,33,33,-1,-2
1517145323285618,1,9,13,-8,-19,-29,-30,6
1517145323286633,-37,-18,-14,31,25,41,-11,-53
1517145323286633,9,7,14,38,37,57,-20,8
1517145323298678,-13,-1,1,-15,7,71,-40,-8
1517145323298678,-11,-9,-2,3,0,-66,-3,-4
1517145323307632,-1,-4,-12,-17,-32,13,-18,5
1517145323307632,-3,-6,-21,-27,-47,-116,-22,-10
1517145323321694,2,4,14,32,21,26,48,2
1517145323321694,13,11,0,-35,-26,25,-25,9
1517145323328651,9,-4,-17,-11,1,-16,11,7
1517145323328651,-3,-5,-1,-6,-4,-19,3,-5
1517145323345660,10,6,10,-6,-12,-20,-5,11
1517145323345660,4,7,20,13,4,9,26,2
1517145323346658,11,14,31,17,21,-10,4,17
1517145323346658,-3,14,18,20,22,5,7,-4
1517145323367675,-10,-23,-85,-37,-18,-28,1,-6
1517145323367675,-11,-2,16,8,3,22,9,-1
1517145323368673,-7,3,8,-6,7,-20,-7,-4
1517145323368673,-2,-2,-7,-8,-26,19,3,1
1517145323381683,16,56,54,33,4,-12,0,2
1517145323381683,-17,-32,0,-2,6,-11,2,-7
1517145323388742,23,37,16,18,-3,-10,-4,6
1517145323388742,-16,-35,-11,-18,0,21,26,-1
1517145323404754,18,45,18,23,-1,-27,-4,6
1517145323404754,-11,-14,-19,-3,3,6,-12,-16
1517145323406718,-26,-87,-54,-50,-3,33,33,4
1517145323406718,6,29,10,7,-19,-22,-17,0
1517145323427770,-15,-11,2,-10,-6,-18,-8,-4
1517145323427770,3,20,1,7,2,1,-9,-6
1517145323428751,14,32,7,5,5,-5,-3,0
1517145323428751,-8,-21,-28,-17,-9,2,-1,-4
1517145323441725,-20,-58,-18,-18,-10,1,6,1
1517145323441725,14,19,9,11,5,2,8,3
1517145323455753,7,15,-1,8,7,-8,-2,1
1517145323455753,3,1,-4,-12,-2,16,4,-1
1517145323465795,3,3,8,0,-5,-8,-4,-5
1517145323465795,2,-3,5,5,2,3,6,4
1517145323467747,2,-6,0,-2,-14,-3,2,4
1517145323467747,16,3,1,-53,2,22,-1,7
1517145323487757,-2,-6,4,66,41,12,1,-5
1517145323487757,8,-8,-19,-5,10,-8,4,16
1517145323488759,-4,-4,-11,-54,-9,-53,2,4
1517145323488759,-3,-1,15,46,-19,18,14,-5
1517145323501782,12,3,7,6,64,-43,-17,14
1517145323501782,-7,3,9,45,-43,20,44,-2
1517145323508773,25,11,-2,-3,5,36,-11,32
1517145323508773,-20,4,7,-12,19,8,-6,-31
1517145323524784,-4,-15,-17,-30,-40,-20,-4,3
1517145323524784,8,1,-9,0,-2,-60,20,15
1517145323526786,-1,7,24,50,48,16,50,6
1517145323526786,-8,-10,-23,-25,-64,-40,-46,-8
1517145323547820,-21,-7,-7,-9,15,25,15,-28
1517145323547820,2,1,5,-10,-8,-6,-5,-1
1517145323548802,-12,-12,-23,-12,-26,-7,-25,-17
1517145323548802,8,10,19,31,22,9,5,12
1517145323561828,3,12,36,-9,-21,-24,0,3
1517145323561828,-2,7,-13,-26,-9,16,-17,-6
1517145323568834,-7,-4,-58,11,6,6,-1,-10
1517145323568834,-4,0,-23,3,14,1,-6,-4
1517145323584826,-3,-9,-2,-15,-33,-1,-4,2
1517145323584826,-8,-6,17,6,16,12,-4,-6
1517145323586828,-6,4,29,6,3,2,-13,-10
1517145323586828,16,23,2,16,7,-15,10,8
1517145323607845,5,3,-18,7,-11,15,-1,-2
1517145323607845,-5,-20,11,-14,0,5,-10,-5
1517145323608843,-10,-30,-13,-10,7,1,13,0
1517145323608843,0,-7,-16,-12,-3,-4,-2,2
1517145323621854,4,16,-9,-3,-3,6,1,-1
1517145323621854,-9,-22,-3,4,12,14,-6,-4
1517145323628858,-9,-4,21,-3,-20,-13,-9,-6
1517145323628858,-2,-4,22,4,4,-12,2,0
1517145323644924,-1,-1,-21,-17,-7,9,-3,-2
1517145323644924,5,10,-10,4,-4,-9,-5,-2
1517145323646870,1,4,4,0,1,-2,-6,-5
1517145323646870,-7,-5,-16,-7,9,7,2,-1
1517145323667939,12,12,15,23,2,-5,5,6
1517145323667939,-12,-18,-11,-19,-4,-2,-9,-8
1517145323673943,5,26,29,7,-8,3,2,1
1517145323673943,-7,-20,-21,-33,-24,-10,-2,-2
1517145323680950,-3,3,32,20,0,-8,-4,-3
1517145323680950,-1,0,-43,7,6,9,-2,-3
1517145323689905,21,18,27,11,17,28,12,15
1517145323689905,-8,-8,23,-17,14,-42,-14,-10
1517145323704968,0,-13,-28,-9,-39,61,15,4
1517145323704968,8,14,41,69,52,-14,21,7
1517145323712921,6,2,17,-11,-14,-9,-10,7
1517145323712921,0,-4,71,9,-9,10,16,-8
1517145323726931,-11,-37,-103,-53,-16,-10,1,-2
1517145323726931,9,4,35,-29,-12,16,-27,5
1517145323734941,-16,-11,-86,-8,-20,-10,-18,-28
1517145323734941,20,25,1,26,32,-4,54,29
1517145323740995,-14,-4,37,-10,-18,8,-62,-28
1517145323740995,1,13,13,-1,11,53,25,2
1517145323749947,0,-7,1,-10,-10,-15,-15,2
1517145323749947,-3,3,-12,12,7,23,-5,-10
1517145323765010,0,2,32,-4,5,-39,9,4
1517145323765010,-6,-17,-69,6,-9,-20,-19,-5
1517145323766959,-4,-9,-31,-17,-4,-10,0,1
1517145323766959,-4,-7,20,12,3,1,-11,-1
1517145323787971,-1,7,23,40,18,-13,12,3
1517145323787971,-1,8,83,-25,-10,0,-7,-2
1517145323788971,-11,-9,-46,2,1,-8,6,-6
1517145323788971,-1,-9,-8,1,-3,8,-5,2
1517145323801038,0,-2,-11,-18,5,-1,-5,3
1517145323801038,-1,8,-4,12,3,-2,5,-2
1517145323817993,-1,6,42,18,9,1,1,-2
1517145323817993,-1,-2,-30,-23,-11,1,-9,-1
1517145323824997,3,4,37,10,9,10,6,1
1517145323824997,-1,-18,-102,-15,-11,-9,-2,-3
1517145323827031,-11,-12,-9,-5,-5,-13,-4,-7
1517145323827031,3,12,-12,-14,-14,-5,-11,0
1517145323848039,4,17,-37,-7,10,13,14,1
1517145323848039,-7,-8,48,-4,-14,-22,-9,-4
1517145323849031,0,-4,14,3,7,8,7,4
1517145323849031,-17,-44,-29,-2,-3,10,5,-2
1517145323861076,22,80,36,30,6,-33,-21,-2
1517145323861076,-3,-25,-1,6,7,18,15,4
1517145323870033,-3,-10,42,1,-14,-19,-13,-7
1517145323870033,1,12,-5,8,13,21,9,5
1517145323886043,-1,-8,5,0,-3,-4,3,2
1517145323886043,-5,16,-3,-9,-20,-33,-25,-12
1517145323887043,12,32,-11,7,23,17,12,7
1517145323887043,-5,4,22,20,2,1,1,3
1517145323908059,-12,-12,-14,-8,-7,-12,-4,-2
1517145323908059,-1,0,-11,-8,-3,-2,-1,-1
1517145323909059,0,9,17,-5,-15,-5,2,-2
1517145323909059,4,4,-6,13,18,17,-8,-4
1517145323921121,-3,-30,-14,-7,6,12,15,5
1517145323921121,5,12,1,-4,22,3,-1,0
1517145323930088,0,-10,16,8,-14,-8,-4,-3
1517145323930088,2,-1,-13,-44,-76,-49,-13,-1
1517145323945138,-2,-22,-6,-6,-1,13,2,-2
1517145323945138,5,7,18,45,61,49,12,3
1517145323951140,0,-6,17,9,33,-7,5,1
1517145323951140,7,-2,-2,2,-2,2,4,3
1517145323975138,2,-6,-13,-25,-31,-34,-18,9
1517145323975138,-26,5,-14,-30,-42,-12,-4,-43
1517145323977108,12,-5,34,-10,13,35,30,18
1517145323977108,-12,-22,-59,29,11,-9,-13,-12
1517145323981161,5,4,32,10,11,-7,14,10
1517145323981161,5,-2,7,-3,-3,7,-25,1
1517145323990131,1,5,2,-11,-19,-5,-14,-2
1517145323990131,9,10,23,-1,6,-18,7,6
1517145324004129,3,-5,-9,-1,4,0,12,3
1517145324004129,2,-7,-38,4,-2,-7,7,7
1517145324013132,-12,-11,-12,-7,-4,-5,-4,-8
1517145324013132,2,11,17,-4,5,0,-2,6
1517145324027160,-15,-1,-33,6,4,3,-8,-11
1517145324027160,0,7,27,-10,-9,-7,3,8
1517145324029141,-9,-5,-18,-5,-3,-4,-3,-6
1517145324029141,-6,-3,4,3,5,11,-8,-7
1517145324041217,-5,-5,3,-7,-2,11,2,-4
1517145324041217,1,-5,9,0,-5,-4,5,2
1517145324050174,-1,-8,-14,1,-3,-5,-10,-1
1517145324050174,-1,3,4,2,-2,0,-1,-5
1517145324065221,0,2,12,12,2,3,-2,-5
1517145324065221,8,5,-31,-18,-8,-12,-3,4
1517145324067177,-10,-30,-20,-10,3,9,5,0
1517145324067177,10,17,26,7,-6,-4,-1,2
1517145324087238,-7,-27,-9,-10,-5,1,3,-4
1517145324087238,7,23,24,16,8,-4,-8,2
1517145324089201,-19,-29,-32,-20,-2,12,2,-9
1517145324089201,-3,-5,7,1,2,8,7,4
1517145324101247,2,6,8,6,-3,-8,-13,-4
1517145324101247,2,5,8,5,-3,-6,5,3
1517145324110199,8,20,-14,-5,-8,-8,-11,-7
1517145324110199,-2,-1,-5,-8,4,1,-2,-2
1517145324125246,-4,5,-4,-1,5,11,2,-2
1517145324125246,-6,-11,-13,-11,-11,-9,-1,-3
1517145324126211,3,0,12,13,5,1,2,4
1517145324126211,-7,-19,-29,-25,-4,1,-1,-4
1517145324147280,2,21,13,5,10,5,-1,0
1517145324147280,-6,-14,1,-9,0,10,1,0
1517145324149229,-2,14,3,3,-10,-22,-8,-1
1517145324149229,-3,-9,-4,4,7,7,4,0
1517145324161289,2,22,-2,-9,-6,-6,-5,-4
1517145324161289,1,-13,-5,4,2,8,4,4
1517145324170245,4,17,8,5,-5,-9,-6,-3
1517145324170245,1,1,-4,-3,-6,-2,-4,-4
1517145324185309,-2,-16,-5,-6,-8,3,1,-2
1517145324185309,-1,-5,-1,0,0,-2,-3,0
1517145324186307,4,-1,6,-2,-6,0,-2,0
1517145324186307,-1,-1,4,-7,-6,-17,-8,-6
1517145324207323,-1,-15,-8,-20,-32,-20,-5,-2
1517145324207323,4,0,-5,-4,15,34,2,0
1517145324209274,-8,-12,7,24,48,7,3,-17
1517145324209274,5,2,11,24,34,27,25,8
1517145324231297,-7,-14,-4,1,6,1,1,-4
1517145324231297,-11,-5,-11,-14,-32,-31,-11,-9
1517145324233290,0,5,-2,-18,-32,-3,-7,3
1517145324233290,-3,5,0,-7,-11,-20,-13,-4
1517145324252353,-5,-8,-3,-5,-14,2,-3,-3
1517145324252353,4,1,2,-8,1,23,6,2
1517145324254304,6,5,6,21,20,18,12,6
1517145324254304,-2,-1,2,12,15,7,12,-1
1517145324267366,0,-5,-4,-1,15,-5,0,4
1517145324267366,-5,12,-4,-4,-9,-14,-5,-5
1517145324269315,1,21,-4,-7,-11,-5,-7,1
1517145324269315,-4,20,-3,-8,-3,-2,-11,-4
1517145324290385,-3,12,-2,-1,-7,3,0,-2
1517145324290385,0,7,2,8,8,-6,1,4
1517145324291327,-3,-3,2,-3,-5,-4,-3,-1
1517145324291327,0,-12,-1,-5,-10,-2,-3,-1
1517145324304391,-1,-13,7,4,4,3,-2,-2
1517145324304391,-15,-76,-34,-13,-16,-4,5,-3
1517145324311397,3,-15,-9,-3,15,0,1,2
1517145324311397,-2,-10,5,1,-4,-1,-4,-1
1517145324327407,1,0,7,10,3,4,-1,2
1517145324327407,3,21,4,1,2,-9,-4,-1
1517145324329357,4,12,15,4,-7,2,-1,1
1517145324329357,-12,-27,-12,-17,-10,-6,-7,-4
1517145324341368,-1,-8,-25,-24,0,1,2,-2
1517145324341368,4,10,17,16,0,-5,3,3
1517145324350387,2,-2,2,1,1,-2,-3,1
1517145324350387,6,11,-2,-1,-7,1,-3,0
1517145324364434,3,-6,8,13,6,2,2,-1
1517145324364434,3,7,11,-1,10,2,0,-1
1517145324371425,-1,-5,-6,5,-6,-6,-2,-2
1517145324371425,-3,-4,-18,-19,-10,-2,-4,-1
1517145324389453,-4,-5,3,10,-7,1,2,0
1517145324389453,7,5,3,-9,-12,-13,-2,1
1517145324390401,-1,-3,-16,-32,-37,-9,-5,-6
1517145324390401,1,7,2,14,40,25,3,-1
1517145324410467,1,2,5,17,24,-3,3,2
1517145324410467,-2,4,8,14,5,1,-5,-2
1517145324411416,-8,-4,-2,-5,-8,9,6,-1
1517145324411416,-10,-4,-4,-25,-76,-42,-10,-4
1517145324424425,-7,-4,-2,-30,12,0,-8,-5
1517145324424425,-2,2,6,43,37,28,7,3
1517145324431480,5,1,-2,23,13,14,9,2
1517145324431480,0,2,6,14,40,14,8,5
1517145324447438,1,-1,4,5,-22,-12,2,1
1517145324447438,-9,-1,6,10,-3,-17,-8,-6
1517145324449459,1,-3,1,-21,-4,-8,-9,-1
1517145324449459,4,7,14,10,-15,-3,-3,-2
1517145324470510,7,6,-4,1,-5,-5,-2,-1
1517145324470510,7,24,-3,-13,-4,-1,-1,1
1517145324471459,-16,-9,14,23,5,2,-1,-3
1517145324471459,-5,-12,-11,-4,5,1,3,0
1517145324484518,-5,-3,-13,-17,-5,2,0,-2
1517145324484518,5,8,-5,-1,-2,7,2,1
1517145324491473,-2,-5,-1,5,-3,-12,-5,-2
1517145324491473,14,23,26,12,14,7,2,5
1517145324507535,-5,-9,16,-11,-4,3,-4,-4
1517145324507535,-11,-34,-77,-25,-16,-7,1,-3
1517145324509485,15,3,-3,5,3,-16,-12,-1
1517145324509485,-11,-38,-73,-43,-5,10,5,-3
1517145324530513,9,21,-34,27,0,1,-2,1
1517145324530513,2,3,59,-7,-4,-10,-3,-5
1517145324531498,-11,-6,-7,-8,0,0,3,1
1517145324531498,8,19,66,29,4,-2,-6,0
1517145324544560,-8,-21,-49,-16,-1,6,6,2
1517145324544560,5,16,27,0,-2,-6,-4,2
1517145324551514,1,5,3,8,5,0,2,1
1517145324551514,0,6,17,5,0,1,-1,-1
1517145324567580,-1,5,19,0,0,-3,-1,2
1517145324567580,-5,2,-8,-1,3,-6,-6,-5
1517145324569528,-7,-8,-11,-12,-22,-8,-3,-4
1517145324569528,-4,-2,-31,-8,-5,4,-1,-1
1517145324590543,-6,-6,17,-1,-6,-21,-3,-4
1517145324590543,-3,-6,-16,-2,3,12,-2,-1
1517145324591543,10,12,3,10,6,18,8,14
1517145324591543,0,-4,5,3,-16,-46,-18,-3
1517145324603603,-10,0,3,5,11,46,19,-7
1517145324603603,-2,-4,3,-5,28,3,17,5
1517145324612589,0,1,2,9,38,18,0,-4
1517145324612589,-8,1,-1,3,23,-7,2,4
1517145324635575,4,-2,30,4,-38,-28,-20,-1
1517145324635575,14,-2,-1,-17,-76,-2,-3,13
1517145324636575,-2,2,2,16,7,-14,12,-11
1517145324636575,1,-6,-14,-12,-1,4,8,0
1517145324650586,-14,-21,-41,-16,30,-1,-2,-5
1517145324650586,-4,-17,27,-5,6,-4,-3,-1
1517145324651586,-1,0,-33,-10,-26,-9,-11,-1
1517145324651586,7,8,20,8,7,7,-1,-3
1517145324663594,-6,-5,18,10,2,0,1,-1
1517145324663594,-3,2,-19,-1,-4,-2,-2,-3
1517145324672598,-2,5,2,-9,1,-5,-2,0
1517145324672598,-2,-2,0,-2,-3,4,-3,-6
1517145324687664,8,6,-6,-7,0,11,4,5
1517145324687664,-8,-18,-75,-7,-4,-8,-5,-6
1517145324689665,-10,-5,7,-3,5,-1,-2,-3
1517145324689665,-2,0,8,9,2,13,5,2
1517145324710628,4,3,-1,-13,-10,-5,-5,2
1517145324710628,-2,4,15,8,9,-5,-4,-5
1517145324711626,-2,-2,3,-15,1,0,-2,-1
1517145324711626,2,2,-19,6,-11,6,-1,-1
1517145324723688,-7,-30,-17,-15,-3,-1,1,-1
1517145324723688,-6,1,4,-2,5,-1,0,-5
1517145324740649,2,-3,-1,-6,-4,-1,-2,0
1517145324740649,-1,10,17,6,-7,-7,-9,-5
1517145324748707,3,15,3,8,0,-6,-11,-3
1517145324748707,-9,-34,-18,-16,2,16,14,2
1517145324749657,-3,-4,15,3,3,0,-19,-1
1517145324749657,-4,0,-11,-29,-36,-28,47,3
1517145324770670,-6,6,1,-19,-35,-3,-32,-31
1517145324770670,15,13,16,46,64,19,-37,32
1517145324771670,-15,-9,-10,11,56,8,-88,-30
1517145324771670,-3,-8,-10,-6,14,3,90,14
1517145324783730,-2,-6,-2,-8,-86,-4,-8,-2
1517145324783730,-5,0,10,-16,-26,-7,42,-15
1517145324792683,8,1,3,3,4,-8,-12,5
1517145324792683,-1,-3,-5,-6,-9,-3,-63,4
1517145324807748,3,-1,5,25,46,-5,9,6
1517145324807748,7,3,1,-34,-57,-23,-23,-2
1517145324809695,6,6,10,27,72,45,42,19
1517145324809695,-15,-11,-4,21,101,-3,0,-28
1517145324829713,1,2,8,-7,-79,-2,27,10
1517145324829713,17,12,4,6,57,-8,-13,17
1517145324831714,-9,-1,-16,-41,-56,-17,-22,-9
1517145324831714,-3,-1,3,18,-4,17,2,-7
1517145324843722,7,10,7,22,68,-8,-2,9
1517145324843722,-19,6,-13,-35,-58,-11,-37,-20
1517145324860735,2,5,0,-4,-31,4,39,2
1517145324860735,8,2,8,32,69,-2,-24,2
1517145324867794,-3,-6,3,11,-6,30,-10,1
1517145324867794,-2,-2,16,9,-5,-16,9,-3
1517145324869746,-2,-5,-11,-18,-37,-16,6,-1
1517145324869746,-1,-10,-22,-48,-52,2,-24,-4
1517145324889754,-1,12,19,22,24,-16,11,4
1517145324889754,-1,-9,-30,-17,13,6,9,-6
1517145324891755,-1,3,29,14,-22,-6,5,-1
1517145324891755,0,-3,-15,4,-8,0,-7,3
1517145324903820,2,5,4,-22,12,-4,-3,2
1517145324903820,-15,-27,-9,12,0,13,8,-9
1517145324912772,4,6,9,19,6,3,5,2
1517145324912772,-11,-26,-17,-23,-23,2,-11,-2
1517145324927833,1,14,11,7,10,-2,-3,-1
1517145324927833,2,20,-4,12,7,9,4,-3
1517145324928834,2,-2,-14,-13,1,-10,10,2
1517145324928834,5,10,16,6,-21,-10,-12,-1
1517145324949850,-10,-41,-26,-17,11,12,1,-5
1517145324949850,3,10,9,13,8,0,7,2
1517145324951799,0,-12,-7,-13,-5,-4,0,-1
1517145324951799,1,8,6,-3,-17,5,-7,-1
1517145324963820,-4,1,-6,-1,1,-10,-8,-2
1517145324963820,1,3,13,5,4,-7,0,-2
1517145324972828,-5,-6,-6,-15,-25,-20,-3,-3
1517145324972828,2,2,3,5,8,32,6,1
1517145324987823,7,-5,1,16,28,-3,9,4
1517145324987823,-6,-8,-2,-10,-12,0,-3,-5
1517145324993829,10,7,-6,-11,17,-28,-5,14
1517145324993829,-20,1,-8,-25,-80,7,-31,-24
1517145325017897,2,3,-4,19,80,-8,5,4
1517145325017897,0,-3,14,25,19,54,31,3
1517145325018865,-3,-10,3,18,6,5,10,2
1517145325018865,4,0,1,1,-21,-36,-7,7
1517145325023901,11,7,1,-9,-19,15,-6,13
1517145325023901,-6,0,-6,-20,-42,-26,1,-7
1517145325032856,-10,4,-6,-8,-1,-8,16,-13
1517145325032856,-1,-5,-3,-5,24,7,17,2
1517145325047918,-5,7,13,-4,-41,-14,-8,-10
1517145325047918,9,2,1,16,8,-12,0,8
1517145325048865,3,-4,-2,-16,15,15,-7,1
1517145325048865,4,3,14,16,19,-5,0,-1
1517145325069916,-2,-9,-15,-10,-9,2,1,-1
1517145325069916,-3,0,22,13,-11,-7,-21,-8
1517145325071884,-11,-5,-13,-13,-11,1,-1,-7
1517145325071884,0,-2,5,13,11,4,-2,0
1517145325083890,-4,-18,15,13,-8,-2,-1,-4
1517145325083890,-3,-23,-35,-31,2,-3,-4,0
1517145325098957,4,-3,15,10,-8,1,0,-2
1517145325098957,1,1,-14,-20,11,-3,6,4
1517145325107916,-8,-10,-7,-2,-16,-1,-3,-7
1517145325107916,2,2,6,8,14,-2,0,-1
1517145325108909,-2,6,2,16,10,10,1,-1
1517145325108909,-1,14,5,-8,-13,-1,-5,0
1517145325129978,2,24,-6,-11,5,0,-1,-3
1517145325129978,-5,19,-8,9,3,-9,-10,-6
1517145325131927,1,1,-1,-5,-14,-3,-1,1
1517145325131927,-20,-72,-18,-11,10,28,18,3
1517145325143988,1,-4,4,5,-1,-9,1,0
1517145325143988,-1,10,-11,-9,7,-2,-2,-2
1517145325152942,1,2,6,3,-8,-3,-8,-3
1517145325152942,8,18,-6,2,3,-4,-6,-2
1517145325167008,-2,4,-11,-10,3,3,-1,0
1517145325167008,-1,1,-1,-7,-16,-3,-2,-1
1517145325174010,0,-3,-7,-1,-1,-5,-2,-1
1517145325174010,4,5,4,7,-14,-13,-6,-1
1517145325189999,-2,-6,-1,-8,21,13,4,0
1517145325189999,0,3,6,9,16,4,-2,-1
1517145325191983,8,-8,-2,-4,-8,-1,2,8
1517145325191983,-19,3,-5,1,-46,-21,-48,-30
1517145325204029,12,15,2,-15,-2,24,-2,10
1517145325204029,1,-6,4,6,32,-14,11,13
1517145325212985,-8,-1,4,22,46,-59,5,-3
1517145325212985,18,11,-5,-25,-30,54,39,24
1517145325227008,-15,-11,-16,9,-16,-37,-43,-22
1517145325227008,11,-3,3,29,13,9,25,18
1517145325234013,-16,-12,-2,-11,6,13,49,-11
1517145325234013,6,4,10,12,21,-21,1,6
1517145325250061,13,0,-2,-17,-13,-17,19,3
1517145325250061,8,0,1,-8,-25,0,8,12
1517145325252011,-14,-4,-4,-3,-12,-23,-32,-15
1517145325252011,-2,-16,-18,-22,6,-29,-9,-7
1517145325273024,-3,-10,2,1,12,27,15,1
1517145325273024,-7,-25,4,-2,-10,-1,-26,-16
1517145325274024,6,1,3,1,-15,32,-2,6
1517145325274024,-3,3,8,7,14,5,3,-1
1517145325287053,-4,10,-2,1,4,-18,-8,-2
1517145325287053,-6,17,-6,-9,-15,12,-4,-6
1517145325294039,-2,-1,-3,-3,-5,9,-10,2
1517145325294039,11,36,0,13,15,-19,9,5
1517145325310054,2,20,16,16,-1,6,-3,-2
1517145325310054,-33,-87,-43,-50,-11,10,-3,-16
1517145325312054,4,-3,-1,-1,-5,8,0,4
1517145325312054,17,42,18,29,11,-2,-6,2
1517145325332120,-5,8,9,-1,-6,1,-1,-4
1517145325332120,-3,0,-9,-3,6,5,-2,-5
1517145325339131,3,-27,-10,-4,-2,8,-3,3
1517145325339131,4,5,6,15,1,12,3,5
1517145325347133,0,6,7,-2,7,-8,-2,0
1517145325347133,3,22,18,3,-2,-13,-1,-1
1517145325354135,1,11,-1,3,-8,4,-8,0
1517145325354135,-7,-5,-5,-1,8,7,-1,-3
1517145325370146,-8,-17,-11,-5,-5,-2,3,-2
1517145325370146,4,9,10,6,-1,-7,-7,-2
1517145325372131,-1,4,-2,1,-7,3,-4,-2
1517145325372131,-4,-12,8,-1,-6,-3,-3,-1
1517145325392125,1,-11,-13,-11,-11,-5,-2,0
1517145325392125,-1,0,0,-16,-24,5,-4,-8
1517145325394113,-4,4,-2,12,17,0,3,-6
1517145325394113,5,-12,2,2,14,-16,-31,12
1517145325407174,-10,2,-4,16,24,27,19,-6
1517145325407174,-15,12,6,15,3,-58,0,-27
1517145325414178,14,5,-5,-5,-8,60,12,14
1517145325414178,-8,-8,-10,-21,-10,3,-21,-4
1517145325429188,10,0,-3,-9,-6,44,17,11
1517145325429188,4,8,14,2,-5,-43,-13,-5
1517145325430136,-2,-2,-11,-13,0,-19,3,-2
1517145325430136,-5,-11,1,5,-3,16,5,-7
1517145325452159,1,-4,1,-2,-13,-32,-14,-2
1517145325452159,-1,1,-7,-14,-3,19,0,3
1517145325453154,0,0,2,0,-7,-9,-6,-2
1517145325453154,4,-19,0,-3,2,-1,12,1
1517145325466218,-4,-21,-1,4,-3,-11,-9,-5
1517145325466218,6,10,5,14,18,22,8,11
1517145325474169,0,26,6,1,-6,-16,-10,-3
1517145325474169,-9,8,-10,-10,-6,2,9,-5
1517145325489193,-7,-1,-15,-3,8,0,0,-4
1517145325489193,4,0,-16,0,-2,17,2,7
1517145325490183,26,81,16,18,-2,-18,-14,2
1517145325490183,-31,-64,-1,-13,14,22,20,-6
1517145325512193,6,0,7,8,-5,-12,0,1
1517145325512193,14,29,4,5,5,4,-8,6
1517145325512193,-19,-30,2,-13,-6,-5,-6,-8
1517145325512193,17,43,-15,3,0,-5,5,3
1517145325526205,-4,-11,11,-2,2,0,-1,1
1517145325526205,3,3,7,4,-8,-6,-6,2
1517145325534209,-10,-25,-3,4,2,1,-3,-6
1517145325534209,2,7,8,-11,-9,-12,-6,-6
1517145325549274,-3,-7,-11,-5,-8,6,-1,-1
1517145325549274,-1,-9,0,0,7,7,1,-1
1517145325550223,9,-9,-12,-15,-3,3,6,13
1517145325550223,-18,-23,-7,-23,-30,-19,-6,-18
1517145325572289,3,10,-5,-4,0,-26,-32,-4
1517145325572289,6,-3,2,4,-10,51,18,12
1517145325572289,-21,-16,-13,1,15,-38,-89,-29
1517145325572289,15,19,34,44,51,25,69,28
1517145325586300,0,11,4,22,21,7,-5,7
1517145325586300,-27,-9,-12,-16,-31,-16,-56,-32
1517145325594305,7,-7,0,-33,-68,3,-14,13
1517145325594305,3,6,0,18,50,-1,0,1
1517145325609283,-5,-13,-2,5,5,-26,6,-2
1517145325609283,12,-4,5,2,8,7,23,16
1517145325610268,6,2,-3,-2,-2,7,18,5
1517145325610268,-3,-4,-8,-16,-34,-28,-32,-14
1517145325631282,3,5,0,-8,-8,-3,10,-1
1517145325631282,1,-1,-6,-5,-1,-13,-6,-2
1517145325639345,-9,-33,4,4,11,1,20,-3
1517145325639345,3,13,7,10,-10,2,-8,-2
1517145325646346,-14,-47,-14,-16,-8,2,-4,-5
1517145325646346,-10,-12,-22,-16,5,8,9,-2
1517145325654356,4,7,5,16,22,20,21,3
1517145325654356,5,11,-7,1,-7,-7,-7,4
1517145325669363,-21,-41,-11,-22,-6,20,4,-4
1517145325669363,-14,-7,-14,-10,-4,-23,-14,-11
1517145325670312,1,-28,-8,13,12,13,23,7
1517145325670312,1,25,10,-1,-9,1,-10,0
1517145325692366,2,19,-4,5,-9,-11,-7,-6
1517145325692366,-3,-7,-19,-12,6,-3,3,-2
1517145325692366,-4,-10,-5,-24,-11,-5,2,0
1517145325692366,0,-12,22,7,-5,-1,-8,-7
1517145325706338,4,14,-38,-30,3,6,2,2
1517145325706338,7,9,32,34,13,0,5,5
1517145325714342,0,5,-29,-29,-8,-6,2,-2
1517145325714342,-2,-10,-8,-10,-9,-5,-6,-4
1517145325729349,3,10,24,18,-5,-3,1,-1
1517145325729349,4,3,10,7,5,3,2,1
1517145325730349,-4,5,5,8,3,-5,-1,-4
1517145325730349,-5,-6,-6,-7,-3,2,-2,-2
1517145325752368,5,17,2,1,2,2,0,-1
1517145325752368,3,15,-2,-9,-8,-9,-1,2
1517145325752368,-6,6,9,2,-8,7,1,-4
1517145325752368,-1,-4,-8,6,23,5,2,1
1517145325766433,3,8,7,22,21,-3,0,2
1517145325766433,-2,-10,7,0,-7,8,3,1
1517145325774437,-1,-1,2,2,3,-5,3,-1
1517145325774437,-3,-3,-10,-8,-13,-6,-4,-2
1517145325789450,-2,-10,-8,-14,-29,-10,-2,-2
1517145325789450,2,9,8,8,35,6,0,1
1517145325790395,-3,-3,2,-2,-14,-9,-5,-5
1517145325790395,-4,-12,-15,-13,-3,-3,-1,-2
1517145325812412,4,-7,6,12,2,11,5,2
1517145325812412,2,9,3,2,-2,5,3,1
1517145325812412,0,9,-2,7,1,-2,0,-1
1517145325812412,1,3,-4,-10,-9,-6,-5,-3
1517145325826474,-2,14,15,-2,-11,-7,-3,-1
1517145325826474,-1,-9,-23,-15,-9,-4,1,1
1517145325834480,-2,3,-1,7,14,4,-1,-1
1517145325834480,-3,-10,0,5,-4,-4,-1,-2
1517145325849471,4,14,15,17,3,5,-1,1
1517145325849471,0,-4,-8,-11,1,-2,-2,-1
1517145325850437,-2,-5,-6,-3,2,-5,-2,-2
1517145325850437,0,8,-7,-14,-4,-4,-5,0
1517145325872455,0,0,1,1,-5,7,1,-1
1517145325872455,0,-2,8,9,13,-11,-2,-1
1517145325872455,-1,-4,-2,-6,-7,7,0,-1
1517145325872455,1,5,3,5,-29,-11,-3,0
1517145325886518,3,-6,1,0,24,8,1,0
1517145325886518,-1,-13,-5,4,4,6,4,0
1517145325894525,1,8,6,7,44,-5,-2,-1
1517145325894525,-4,-12,-3,2,-26,1,-2,-1
1517145325909496,1,9,-3,-14,-19,-11,1,2
1517145325909496,-5,-5,0,-8,-31,-8,-4,-5
1517145325917488,-3,3,-3,2,36,7,-1,0
1517145325917488,-5,-6,-1,-1,-34,11,1,-3
1517145325931494,0,-7,-10,-16,-5,-23,3,5
1517145325931494,-3,4,13,18,16,4,16,1
1517145325932498,-2,7,-1,-12,-24,-20,-15,-3
1517145325932498,1,9,-4,-1,33,27,3,-2
1517145325946506,10,0,5,21,-1,-17,11,12
1517145325946506,-15,-17,-7,-17,-56,-33,-15,-15
1517145325954509,1,9,2,8,110,60,14,-3
1517145325954509,12,-12,6,15,-98,-15,7,13
1517145325969573,-3,-19,17,48,65,8,53,1
1517145325969573,5,-12,-3,-15,4,-16,-12,7
1517145325970553,-7,-7,-5,-17,-27,-15,-8,-6
1517145325970553,-1,-6,-10,-34,8,-18,-10,0
1517145325991534,-5,11,-15,-24,-21,1,-33,-11
1517145325991534,-5,5,4,-4,-8,-10,-12,-13
1517145325992536,9,6,6,16,-23,-9,-5,9
1517145325992536,-3,3,10,5,40,16,18,-1
1517145326006598,-4,3,-3,-2,-21,-2,-12,-6
1517145326006598,0,-5,-12,-9,21,15,1,3
1517145326014604,-2,-19,4,1,-39,-5,-4,2
1517145326014604,-6,0,-7,-1,17,-11,-8,-5
1517145326029619,-2,-18,7,-8,-13,1,-9,-8
1517145326029619,8,21,-8,-24,2,12,6,6
1517145326030587,-8,18,-3,30,-5,2,5,-3
1517145326030587,-1,46,9,13,18,-5,-1,-3
1517145326051634,-4,23,13,-12,-6,7,-3,0
1517145326051634,-1,19,-20,1,-3,1,-3,-2
1517145326052580,2,3,9,4,-15,-9,3,0
1517145326052580,-2,-24,-1,-2,17,2,-5,-5
1517145326075599,0,-15,14,-8,-6,4,-9,0
1517145326075599,-1,-21,-12,12,4,1,-2,-2
1517145326075599,1,-13,-12,-7,-9,0,3,0
1517145326075599,1,-20,-6,-10,0,-6,0,0
1517145326089661,-2,0,4,-5,-4,-1,-8,-5
1517145326089661,-4,-16,3,7,2,5,7,3
1517145326090616,-1,-9,-15,-1,-6,-5,1,1
1517145326090616,1,-6,4,4,10,4,-1,-1
1517145326111676,-3,-2,-22,-8,-2,0,-3,-1
1517145326111676,0,7,15,10,5,1,0,0
1517145326112623,0,1,4,-6,-11,0,0,-1
1517145326112623,-6,-4,-4,3,6,-2,-4,-4
1517145326126631,-1,6,-10,-6,2,-3,-3,-1
1517145326126631,1,6,6,3,-13,4,-4,-1
1517145326134693,-1,-2,6,-3,-10,-2,2,-5
1517145326134693,0,-2,-7,-4,5,-12,-4,2
1517145326149647,-1,-1,-14,-20,-16,-9,-2,-4
1517145326149647,-15,-7,4,17,23,30,-21,-22
1517145326149647,5,-4,6,19,34,4,7,7
1517145326149647,0,-3,-4,1,8,4,1,3
1517145326171682,-10,-8,-5,-7,-21,0,-13,-6
1517145326171682,5,-1,9,-6,-29,-23,3,3
1517145326172664,-2,0,-4,-25,-16,-6,0,-2
1517145326172664,-5,-2,-5,6,-7,-1,-5,-4
1517145326186676,-3,-1,1,4,-4,-4,-4,-1
1517145326186676,6,-2,-4,-6,-8,-2,6,2
1517145326194735,-7,-3,-5,-7,8,1,-3,-10
1517145326194735,4,0,-7,-22,4,7,5,4
1517145326209693,-3,0,1,18,0,-8,-1,-8
1517145326209693,11,-3,-11,-18,7,1,2,2
1517145326210691,-9,-4,-3,7,-5,-9,-6,-2
1517145326210691,-5,12,6,-18,-6,-3,-4,-5
1517145326231744,-2,-23,6,17,19,16,6,4
1517145326231744,-6,-8,-5,-14,0,-8,1,1
1517145326232724,9,-2,-5,3,-19,-8,-7,-1
1517145326232724,-6,0,4,-2,-5,-2,-3,-2
1517145326254778,2,12,2,6,7,5,-1,1
1517145326254778,-1,5,32,15,2,-6,4,3
1517145326255726,3,9,-29,-2,-4,1,1,1
1517145326255726,-6,-2,-5,8,3,2,-1,-4
1517145326269789,-1,-41,4,-16,4,4,5,4
1517145326269789,0,9,-11,-1,-4,-2,-3,-9
1517145326269789,-4,-3,-4,-4,-9,-1,-1,0
1517145326269789,1,-7,-40,9,1,-4,-2,-3
1517145326299812,6,14,-3,-4,-1,-2,-4,0
1517145326299812,0,2,18,4,3,2,2,4
1517145326300758,-3,-6,18,3,-2,-1,-3,0
1517145326300758,0,-1,8,2,-1,-5,0,-1
1517145326315822,-1,-1,-5,-5,-9,3,1,1
1517145326315822,-2,2,-5,6,7,4,2,4
1517145326316767,-1,7,10,-4,-9,-11,-2,-3
1517145326316767,-2,-6,-4,-4,3,2,-2,-1
1517145326329833,4,16,-10,1,4,2,0,-1
1517145326329833,3,18,7,11,6,0,0,3
1517145326329833,-10,-42,-26,-23,0,6,-1,-4
1517145326329833,-6,-5,8,-15,-18,-11,-3,-3
1517145326351848,1,3,-5,1,3,-7,-2,0
1517145326351848,1,0,-4,15,8,4,2,2
1517145326352791,5,6,8,7,4,3,3,3
1517145326352791,2,10,18,9,3,0,-3,-2
1517145326374812,-10,-40,-29,-31,-26,-5,-4,-7
1517145326374812,1,3,3,-2,9,-5,-3,2
1517145326375808,-2,2,13,4,-3,-1,-3,-4
1517145326375808,-4,-11,3,4,7,7,1,-1
1517145326389819,3,14,7,8,4,4,3,2
1517145326389819,-4,-10,-9,-14,-19,-14,-2,0
1517145326389819,-2,4,4,9,3,-8,-2,0
1517145326389819,3,1,1,10,11,10,0,2
1517145326411891,-1,7,0,-7,-8,-4,4,-1
1517145326411891,-6,-10,-7,0,-4,2,6,-2
1517145326412837,-1,6,6,-2,-14,7,-16,-3
1517145326412837,-9,-4,-7,-3,2,-9,-1,-1
1517145326434908,1,6,-1,5,2,-7,-8,4
1517145326434908,-3,-5,2,-4,4,4,-1,-10
1517145326435853,3,4,0,4,-8,-4,2,2
1517145326435853,5,0,9,-3,-6,-1,-1,1
1517145326449864,-1,1,1,8,5,1,-2,1
1517145326449864,-1,-6,-14,-19,-2,-8,-3,0
1517145326449864,3,-3,-15,-11,1,1,5,0
1517145326449864,7,6,3,8,-1,1,1,-1
1517145326471932,1,6,8,2,-1,-6,1,-5
1517145326471932,2,12,16,30,0,4,-2,2
1517145326472881,-6,-18,-33,-54,-10,-4,1,-3
1517145326472881,-1,-2,7,6,2,-2,1,0
1517145326494951,-5,4,-26,-3,-1,4,-1,-4
1517145326494951,-2,-10,10,6,-4,-5,-8,-1
1517145326495900,-18,-1,11,-9,-11,-4,-5,-18
1517145326495900,-1,9,-1,3,4,-2,1,0
1517145326509904,0,2,-2,-7,-4,-3,-1,0
1517145326509904,0,-11,-30,-25,-12,4,-18,0
1517145326509904,7,0,30,15,4,8,9,0
1517145326509904,-2,5,11,15,20,2,13,-2
1517145326531918,5,8,8,4,5,5,12,11
1517145326531918,-7,-10,44,7,19,-7,-1,-3
1517145326532919,8,10,-10,-1,-12,1,4,11
1517145326532919,0,-3,-17,-3,-9,-11,-1,1
1517145326554996,-2,-16,16,7,7,-16,-6,-8
1517145326554996,1,29,-1,-6,-5,10,5,1
1517145326555939,-1,3,5,8,9,5,-1,1
1517145326555939,-2,-6,7,2,3,-2,-4,-1
1517145326569949,-2,-2,-6,-7,-6,5,-5,-1
1517145326569949,-3,-13,-13,-8,-12,-7,0,-2
1517145326569949,-3,4,3,21,13,-4,-2,-6
1517145326569949,3,-3,-23,-26,-13,3,-4,-2
1517145326591961,-7,-4,-4,-6,-9,-6,-3,-4
1517145326591961,2,3,-10,-11,4,7,4,0
1517145326592964,-2,-4,-2,13,13,2,1,5
1517145326592964,0,-6,8,0,-2,-7,-5,-2
1517145326615016,0,-8,-7,-11,2,6,-2,-2
1517145326615016,-3,-2,2,17,-4,-10,-1,-1
1517145326615982,11,25,7,-1,-2,-4,-4,5
1517145326615982,-22,-63,-34,-29,-23,-11,-9,-11
1517145326628987,-2,8,5,-3,6,6,2,-2
1517145326628987,1,5,-3,1,2,3,4,2
1517145326629987,2,-7,6,2,-6,-5,-1,1
1517145326629987,5,21,-1,-4,-6,-1,-2,0
1517145326660010,6,10,-1,10,7,8,0,-1
1517145326660010,-7,-24,-2,-1,2,4,5,0
1517145326661012,-6,-5,-3,1,-3,-9,-3,-2
1517145326661012,-1,11,4,-6,-7,-2,-1,-1
1517145326675060,2,7,2,9,17,-1,-6,-3
1517145326675060,3,5,-2,-4,-5,-3,0,0
1517145326676058,-3,-7,-13,-11,-16,-6,0,-4
1517145326676058,5,7,5,6,5,13,2,2
1517145326689125,-3,-5,3,-1,4,-1,1,-1
1517145326689125,8,2,-6,2,1,-3,-4,10
1517145326690070,-2,-5,-4,-15,-18,-23,19,-1
1517145326690070,2,4,8,18,9,6,7,3
1517145326712139,1,1,0,8,14,3,3,-1
1517145326712139,-5,-6,-5,-7,-6,-1,-3,-6
1517145326713086,8,2,3,8,0,-1,5,6
1517145326713086,4,2,0,-26,-31,-16,-18,6
1517145326735158,-19,-12,-8,7,10,60,-13,-24
1517145326735158,-13,-5,-6,5,31,-7,7,-11
1517145326736104,-9,-11,0,3,2,8,-12,-6
1517145326736104,-2,-4,3,18,11,12,2,-1
1517145326750167,11,10,7,-2,-21,-23,-2,13
1517145326750167,-2,-22,-21,-29,-24,-11,-7,-3
1517145326751112,1,4,1,7,12,16,-5,-5
1517145326751112,-2,-1,0,13,3,-6,-3,-2
1517145326772182,3,-2,-2,-20,-21,-25,-3,-4
1517145326772182,-14,6,10,23,4,9,0,-3
1517145326773128,1,-1,-6,-13,11,-2,0,0
1517145326773128,2,6,-7,-12,-5,-3,2,2
1517145326795145,-3,0,2,3,-3,-10,-2,-1
1517145326795145,4,5,5,6,-2,-1,0,-1
1517145326796146,0,0,-1,2,-5,-4,-4,2
1517145326796146,-4,4,5,6,12,7,2,-4
1517145326809153,-3,-3,-9,-14,-3,-1,1,-1
1517145326809153,0,-2,-2,-1,-5,-6,-2,1
1517145326817188,-4,0,-5,0,4,3,-4,-1
1517145326817188,0,3,-3,-5,-5,-4,-2,-4
1517145326832172,0,-7,-1,0,2,-1,2,1
1517145326832172,5,1,4,9,12,4,4,3
1517145326832172,-1,1,-1,5,4,-1,-1,-3
1517145326832172,-3,-5,-4,-9,-7,-5,-2,-2
1517145326855239,1,0,0,-1,-7,0,-1,2
1517145326855239,-4,2,-1,-3,-12,-1,-1,0
1517145326856220,-2,-9,-4,-8,-6,-5,-4,-3
1517145326856220,-1,-3,-2,0,-5,-3,-2,-2
1517145326869199,1,0,-1,-4,1,-6,0,0
1517145326869199,2,1,-1,-1,3,2,-1,-1
1517145326877255,-2,0,0,3,-4,2,1,1
1517145326877255,-4,-3,-3,-12,-25,-15,-3,-2
1517145326892264,0,2,0,5,22,7,0,-3
1517145326892264,2,3,2,11,20,11,0,-1
1517145326892264,0,-1,1,1,-2,-4,0,2
1517145326892264,2,-2,3,12,10,-1,3,0
1517145326915283,-2,-4,-4,-12,-25,-8,-2,0
1517145326915283,-3,2,-5,-15,-19,-15,-7,-2
1517145326916268,1,6,-1,1,5,10,-4,-2
1517145326916268,1,-2,-1,3,5,9,1,-1
1517145326929238,-2,-17,-7,-8,-1,-6,1,-2
1517145326929238,0,5,-3,-2,-7,-5,-4,0
1517145326937298,-9,-13,-14,-14,-9,-1,0,-2
1517145326937298,2,5,3,3,7,-4,-7,-2
1517145326951308,7,6,-20,8,0,6,3,0
1517145326951308,-9,-20,2,-15,0,5,5,1
1517145326959270,5,9,10,8,-14,-5,-3,1
1517145326959270,2,7,-9,7,25,16,2,1
1517145326975287,-6,17,15,-1,-2,-10,-7,-1
1517145326975287,2,-1,-1,-4,-26,-11,-3,-1
1517145326976271,-1,-1,-2,1,15,4,3,2
1517145326976271,2,7,9,14,9,-1,0,2
1517145326989283,-3,-1,-2,-13,-37,-21,-7,-3
1517145326989283,10,2,-2,4,26,19,5,7
1517145326997338,1,5,15,30,28,8,10,1
1517145326997338,1,-7,-8,-17,-22,-18,-2,0
1517145327012295,-12,-11,-5,-6,-10,19,4,-11
1517145327012295,-1,0,1,0,34,0,-2,-1
1517145327012295,-4,-4,-10,-15,-44,-20,-7,-6
1517145327012295,2,-6,0,0,-6,10,1,7
1517145327035369,-6,-7,5,6,7,-43,-4,-6
1517145327035369,-4,0,-6,0,-25,1,0,-7
1517145327036313,1,-1,11,17,39,21,14,0
1517145327036313,0,-7,1,-6,-3,6,1,-2
1517145327048375,3,5,-7,-15,-8,4,-7,4
1517145327048375,3,1,2,4,-4,-11,-1,1
1517145327057383,5,0,4,-5,-3,-10,-7,-2
1517145327057383,2,1,22,-4,-11,2,-3,-1
1517145327072339,-2,-18,-59,10,20,5,3,1
1517145327072339,-6,6,8,-3,-9,-12,-6,-4
1517145327072339,2,12,1,-13,-10,2,-3,2
1517145327072339,-2,6,55,-1,2,-1,-1,-1
1517145327095409,-7,-29,-80,-3,5,1,-3,-1
1517145327095409,-8,-5,25,-12,-8,-2,-2,-4
1517145327096356,-6,-8,-62,-6,-12,-4,-8,-4
1517145327096356,-4,10,7,9,9,-1,1,-3
1517145327108381,2,7,95,12,7,3,3,4
1517145327108381,3,6,-53,-4,-11,3,-1,0
1517145327117371,-3,-3,-11,-7,0,-3,-2,0
1517145327117371,-1,-6,-3,-2,8,1,-2,-4
1517145327132436,-5,7,11,-1,-9,0,1,1
1517145327132436,-1,-7,6,-2,-3,0,-2,-2
1517145327133385,-2,-13,19,7,2,-5,-4,-2
1517145327133385,2,8,-34,-10,-1,-5,-1,-3
1517145327155455,0,3,19,4,3,9,1,0
1517145327155455,9,24,14,15,2,-6,-5,0
1517145327155455,-17,-42,-25,-30,-7,6,2,-4
1517145327155455,9,27,11,25,6,-4,-2,1
1517145327177467,-16,-18,-15,-21,-17,-9,-2,-5
1517145327177467,5,2,6,3,7,8,3,1
1517145327178415,9,24,18,12,8,-3,0,3
1517145327178415,-15,-34,-25,-15,-8,-11,-11,-9
1517145327191424,13,15,4,1,11,18,9,6
1517145327191424,-5,-15,-7,-12,-28,-18,-5,-2
1517145327192426,-3,4,14,1,7,9,-2,2
1517145327192426,-4,-6,-2,7,2,-13,-3,-3
1517145327215450,3,6,6,10,10,0,-2,0
1517145327215450,-5,-16,-8,-2,12,13,4,-2
1517145327215450,5,10,1,-8,-3,-4,-2,1
1517145327215450,-8,-14,-8,-11,-14,-2,-2,-2
1517145327237472,-1,-1,-1,-10,-23,-13,-10,-7
1517145327237472,3,8,8,-2,-9,2,-1,-3
1517145327238457,-2,-9,7,5,7,1,-5,-11
1517145327238457,-7,-7,-14,-4,-1,-15,-21,-3
1517145327251483,-10,3,13,7,5,15,-2,-14
1517145327251483,-4,-7,-5,1,5,-11,-5,-4
1517145327252468,2,1,2,-4,-25,-50,-16,6
1517145327252468,2,-8,-16,-29,-30,66,39,0
1517145327275484,6,7,15,21,32,-30,22,7
1517145327275484,-4,-2,3,4,-6,-6,-20,-5
1517145327275484,-22,-10,-19,-20,9,38,4,-27
1517145327275484,9,7,8,13,-2,1,-13,8
1517145327305558,-14,-13,4,-10,-25,21,-24,-21
1517145327305558,3,-2,-21,-17,8,21,6,6
1517145327305558,6,2,5,-9,-14,-23,-9,8
1517145327305558,-3,-8,-5,-6,4,-20,-5,-6
1517145327311562,4,0,3,14,1,27,3,6
1517145327311562,-6,-5,-7,-13,-7,-42,-1,-4
1517145327312512,1,4,1,-2,-4,13,-6,0
1517145327312512,-1,1,3,4,5,-4,6,1
1517145327335582,1,-13,8,10,4,-17,0,4
1517145327335582,2,1,-14,3,-4,8,6,1
1517145327335582,2,4,5,-1,1,0,7,6
1517145327335582,-8,-6,-9,7,13,-2,3,-5
1517145327357594,5,12,18,-2,-3,-9,0,5
1517145327357594,-1,3,34,4,3,9,2,0
1517145327358558,-4,-16,-79,-10,-4,4,1,-2
1517145327358558,3,5,12,7,5,-6,-5,0
1517145327371559,6,7,4,-3,2,-2,-3,2
1517145327371559,-3,-11,11,3,1,6,2,0
1517145327372554,10,25,38,22,4,-16,-5,1
1517145327372554,-18,-51,-36,-30,-14,-2,5,-4
1517145327395570,8,12,-16,-1,1,4,1,5
1517145327395570,-7,-22,-10,-4,-4,-7,-5,-7
1517145327395570,-1,-2,12,-3,1,7,4,1
1517145327395570,7,8,8,15,5,-10,-3,2
1517145327417638,-5,-4,-4,-13,-3,5,1,1
1517145327417638,4,-6,3,8,0,-6,-3,0
1517145327418585,2,4,-3,4,2,5,2,2
1517145327418585,-4,-11,1,-5,5,3,-1,-3
1517145327431647,-6,-26,-27,-13,1,3,4,-1
1517145327431647,3,24,-8,3,-1,-4,0,5
1517145327432601,-4,15,16,4,-9,1,-2,-4
1517145327432601,1,3,-15,0,1,0,1,-1
1517145327455613,-9,8,10,-3,-13,-15,-8,-4
1517145327455613,-10,-11,-7,-8,-15,-4,0,1
1517145327455613,-2,1,7,-13,-3,2,3,2
1517145327455613,5,31,16,31,33,2,-3,2
1517145327477680,3,-2,-9,-2,-5,-2,-4,-3
1517145327477680,1,0,-6,-5,3,1,0,-3
1517145327478646,5,3,10,2,-1,-2,0,2
1517145327478646,0,14,7,-5,-12,-6,-2,-1
1517145327491652,10,-6,-6,-7,10,-4,2,5
1517145327491652,12,4,6,0,-27,-14,1,6
1517145327492639,-6,-15,0,2,-2,15,12,-6
1517145327492639,3,-3,2,5,24,5,5,2
1517145327514707,5,0,2,0,-6,-10,-9,8
1517145327514707,-17,-2,5,22,23,0,8,-19
1517145327515654,12,-2,-6,-33,-25,3,1,20
1517145327515654,3,-4,3,15,-1,-9,3,11
1517145327537686,8,12,3,0,15,-19,9,11
1517145327537686,4,10,16,23,17,-29,4,16
1517145327538687,-11,-11,14,13,14,-2,-2,-9
1517145327538687,-7,-7,-44,-9,-17,-43,35,-8
1517145327551713,3,-2,9,-11,-20,-2,10,-2
1517145327551713,-1,-7,-19,-6,12,28,17,-5
1517145327552681,-2,10,43,14,0,-27,0,-5
1517145327552681,-1,10,55,-13,-7,-15,-12,-1
1517145327573748,4,17,0,9,-6,5,3,-2
1517145327573748,-5,-33,-29,-12,-2,-7,-7,-4
1517145327581754,-7,3,-6,-4,-5,2,-8,-4
1517145327581754,-6,2,30,-6,-5,18,-12,-8
1517145327597765,-10,-2,-1,-4,-1,4,-9,-5
1517145327597765,3,14,25,-3,-6,16,-8,2
1517145327598750,-4,-18,-45,-1,5,-3,-5,-4
1517145327598750,0,3,-23,3,1,7,-7,2
1517145327611776,0,6,13,9,8,1,-1,0
1517145327611776,-3,-2,-4,-9,-12,-10,-9,-4
1517145327619780,5,-1,5,15,14,6,6,1
1517145327619780,-2,-21,-36,-18,-6,19,0,-7
1517145327634739,4,15,17,16,-6,-9,-14,-7
1517145327634739,7,25,27,11,12,12,1,0
1517145327635738,-17,-71,-28,-24,-13,0,1,-4
1517145327635738,13,18,10,9,-6,-10,-14,1
1517145327657808,-13,-15,-2,-17,0,4,-4,-7
1517145327657808,5,14,-2,-3,-4,8,5,11
1517145327658758,7,34,21,20,5,-13,-7,1
1517145327658758,-13,-17,-8,-11,2,15,3,0
1517145327671820,-7,-7,-9,2,1,-5,-5,-6
1517145327671820,-2,13,-1,0,2,2,-2,1
1517145327672765,-14,-2,-14,-12,-8,-8,-4,-6
1517145327672765,1,19,1,-2,-11,-6,-8,-4
1517145327702842,0,0,3,4,9,14,3,3
1517145327702842,-5,-8,-10,-9,-3,2,-2,-3
1517145327703840,2,-6,7,-1,5,2,0,0
1517145327703840,3,2,1,2,-3,8,0,2
1517145327717850,0,-14,-15,-18,-16,-6,1,-2
1517145327717850,-5,-11,-12,0,1,1,-4,-8
1517145327718808,6,6,10,20,29,3,2,-1
1517145327718808,-1,-5,0,-1,1,-2,-3,-1
1517145327731824,-5,-1,-12,-6,-10,-1,1,1
1517145327731824,1,-6,-3,-15,-23,-8,-5,-4
1517145327732808,5,8,-3,-13,-21,4,-3,4
1517145327732808,3,-1,5,11,18,4,0,2
1517145327754823,-1,-8,-2,-5,-18,17,-14,-3
1517145327754823,-6,-6,-5,1,15,-27,-1,-6
1517145327754823,-6,4,6,13,17,5,-14,-6
1517145327754823,-7,-11,-10,-8,-11,-35,-5,-8
1517145327777893,0,-4,2,-9,-14,-4,7,6
1517145327777893,1,-2,-1,12,11,28,9,8
1517145327778841,-8,-2,-12,-14,10,-41,-18,-14
1517145327778841,-8,0,9,33,15,26,11,-7
1517145327790905,7,6,-3,-21,12,-2,0,5
1517145327790905,9,36,9,-9,-15,1,1,3
1517145327799855,9,21,19,1,-19,2,0,6
1517145327799855,9,-1,-25,-19,-23,-14,-13,5
1517145327814866,-5,1,16,24,34,-12,9,-8
1517145327814866,7,-8,-27,-7,-14,-7,-7,5
1517145327814866,5,11,26,14,15,8,19,3
1517145327814866,-3,-29,20,9,7,5,-6,-3
1517145327837938,-4,-18,-19,-9,-7,5,-2,2
1517145327837938,-12,-26,6,-11,-12,-8,-5,-9
1517145327838883,-5,-5,-29,-9,-5,-7,9,3
1517145327838883,-1,11,11,2,0,-2,4,0
1517145327850949,1,-4,-33,-2,0,4,-3,2
1517145327850949,-5,2,18,3,4,4,-3,-6
1517145327859897,2,-10,4,-2,-11,-4,-3,-2
1517145327859897,-5,-5,5,-12,-5,5,-3,-2
1517145327873963,12,32,19,18,2,-10,-8,-5
1517145327873963,2,12,11,1,1,-2,-2,-2
1517145327874909,-5,-31,-21,-15,-10,8,0,-4
1517145327874909,6,16,-1,2,6,4,4,11
1517145327897980,-17,-71,-47,-33,-19,13,15,-9
1517145327897980,-1,6,13,12,6,1,-3,-5
1517145327897980,53,93,20,61,27,1,-7,12
1517145327897980,-50,-59,7,-57,-26,9,4,-12
1517145327910989,27,66,11,35,7,-12,1,18
1517145327910989,-22,-43,-11,-23,3,14,0,-7
1517145327918995,-3,10,-1,-2,-12,-5,-5,-2
1517145327918995,21,36,-7,11,5,-15,-12,-6
1517145327934005,-7,20,53,18,10,12,4,1
1517145327934005,-3,5,-9,4,-7,-20,-5,1
1517145327941973,-32,-43,-17,-32,-20,3,2,-6
1517145327941973,4,37,-7,18,16,1,0,2
1517145327957968,-12,-22,-8,-15,-7,-5,-6,-8
1517145327957968,5,15,7,4,-1,6,-1,4
1517145327957968,-8,-17,-3,-5,24,10,1,-5
1517145327957968,4,-12,-10,-9,-6,9,5,1
1517145327971032,4,-2,5,7,2,-6,-4,-2
1517145327971032,7,-12,-13,1,4,-2,1,-1
1517145327979037,2,-12,-6,-13,-30,-32,-6,1
1517145327979037,3,-3,-12,-9,11,36,3,-4
1517145327994047,7,-9,-7,1,20,19,14,9
1517145327994047,-12,-6,-10,-5,-13,-36,-42,-29
1517145327994994,-1,-7,5,-4,-15,31,21,8
1517145327994994,-11,-8,7,1,24,-64,1,-15
1517145328018014,-14,-5,-12,-2,3,21,-12,-19
1517145328018014,10,0,3,-20,-32,51,1,10
1517145328018014,-6,-7,25,20,15,-4,17,-5
1517145328018014,15,12,44,-8,-39,-13,-7,6
1517145328031074,-17,-20,-63,-33,-21,-7,-22,-18
1517145328031074,-31,-40,-97,-12,12,10,32,-30
1517145328039078,0,16,19,-16,-29,29,1,-1
1517145328039078,10,16,28,17,10,4,-2,12
1517145328054091,6,-4,8,4,3,-27,-3,10
1517145328054091,7,17,11,-3,-20,-39,-10,13
1517145328055038,-13,-10,-25,-12,-15,-17,-12,-10
1517145328055038,3,1,-21,9,21,38,7,-1
1517145328078053,1,4,33,17,27,-2,3,3
1517145328078053,3,-5,-14,10,2,5,4,6
1517145328078053,-4,-3,-19,-10,14,-7,-2,-3
1517145328078053,-6,-3,0,-7,-37,-18,-8,2
1517145328091117,-5,-4,-2,0,-10,3,0,-3
1517145328091117,7,5,21,4,17,5,8,8
1517145328099067,1,4,13,19,11,-14,-8,3
1517145328099067,-4,-12,-32,-21,-20,-3,-4,-2
1517145328114132,5,-1,6,-12,-12,-1,0,-1
1517145328114132,8,34,14,6,13,6,-1,4
1517145328115079,-13,-55,-17,-15,6,3,-4,-5
1517145328115079,-1,-9,8,20,5,8,3,2
1517145328138148,0,12,10,4,-24,-15,3,0
1517145328138148,1,-15,6,-17,-4,-10,-2,2
1517145328140106,-7,-9,-8,-1,3,11,-7,-4
1517145328140106,15,53,20,9,23,-24,-8,-3
1517145328160114,-9,-40,-1,11,22,37,25,9
1517145328160114,-1,3,26,15,1,-1,-2,3
1517145328162111,-4,13,-13,-13,-1,-9,-5,-1
1517145328162111,-5,-4,-23,-9,-54,-8,-6,-5
1517145328174159,5,33,19,5,8,-17,-8,-2
1517145328174159,2,-4,8,-3,3,10,8,1
1517145328183126,-4,1,-22,-2,36,-2,-1,1
1517145328183126,-3,8,11,-2,-1,-5,-2,-1
1517145328197190,6,10,22,8,-14,3,-1,-1
1517145328197190,-3,-19,-56,-17,9,-13,-3,-1
1517145328199138,14,39,53,0,-38,-2,-2,3
1517145328199138,-4,-31,-72,-9,12,-8,-3,-2
1517145328220208,-13,-40,-42,-10,37,27,7,-4
1517145328220208,4,8,19,16,-9,-12,2,4
1517145328222157,10,15,14,1,-2,-2,-3,7
1517145328222157,-13,-22,-42,-17,7,14,-1,-12
1517145328242172,-9,18,58,18,-32,-12,-33,-15
1517145328242172,0,3,-43,-12,13,-13,1,2
1517145328244170,2,-11,-33,-7,-8,3,2,4
1517145328244170,-1,-1,19,4,9,6,11,1
1517145328257234,-6,-5,6,-20,-16,-25,-30,-9
1517145328257234,6,9,43,24,-9,17,-33,1
1517145328259181,-3,4,-2,-7,29,17,42,-6
1517145328259181,0,-14,41,6,-4,10,8,4
1517145328280249,1,6,-89,-11,1,-11,-2,1
1517145328280249,4,-11,7,-39,-31,-41,5,10
1517145328281231,3,-5,17,13,-6,7,-14,-1
1517145328281231,-9,-14,-44,-18,-4,-6,-9,-3
1517145328294206,12,21,29,13,5,0,18,10
1517145328294206,0,5,0,13,5,6,0,-6
1517145328302212,-3,-8,20,0,-1,-11,-3,-2
1517145328302212,0,3,8,5,0,0,5,-1
1517145328317223,0,2,11,1,-8,-3,-5,2
1517145328317223,-2,7,5,2,10,10,3,-3
1517145328319224,-3,1,-5,-4,-7,-1,-5,-5
1517145328319224,4,5,12,15,-2,-4,-5,4
1517145328340291,-6,-13,-20,-14,-1,-1,6,-1
1517145328340291,13,56,10,17,12,7,1,0
1517145328341239,-19,-44,-15,-10,-5,4,1,-2
1517145328341239,6,8,-3,-4,-5,-5,0,0
1517145328354251,6,16,12,0,7,1,9,5
1517145328354251,-8,-15,3,5,-2,0,-1,-7
1517145328362309,-4,6,-15,-14,-12,-11,-15,-4
1517145328362309,-21,-74,-38,-33,10,20,10,-3
1517145328377320,4,9,40,21,-3,2,10,7
1517145328377320,-5,-21,-5,-2,0,-2,-4,-4
1517145328379266,-1,9,-5,-3,-12,-6,-4,-1
1517145328379266,2,25,11,1,-9,-19,-14,-6
1517145328400335,-3,-13,-17,3,19,6,0,-3
1517145328400335,-1,-6,10,13,18,17,9,2
1517145328401305,4,7,-1,-2,-14,-16,-6,0
1517145328401305,0,8,11,-5,-15,-15,-2,0
1517145328414293,0,-3,-14,-2,-16,-4,-1,-2
1517145328414293,11,2,32,-2,4,39,12,16
1517145328422350,-9,-2,11,8,67,3,3,-10
1517145328422350,14,23,40,22,-12,-22,10,15
1517145328437362,2,-37,-105,-15,18,19,-9,15
1517145328437362,-18,-9,77,24,14,-77,6,-13
1517145328439309,3,-12,11,-16,-40,16,10,1
1517145328439309,-5,18,85,1,25,-14,-20,-10
1517145328460342,2,9,-23,15,12,-10,17,-9
1517145328460342,7,-8,-24,-13,-25,13,-7,9
1517145328466383,7,10,30,7,-4,-42,-9,8
1517145328466383,-7,0,-5,8,-7,-17,3,-8
1517145328473390,4,3,6,-16,-21,-1,-11,-3
1517145328473390,-6,3,-28,-30,-2,5,-8,-8
1517145328482385,3,-5,24,23,5,8,7,0
1517145328482385,2,-6,-77,5,-4,23,-7,3
1517145328497403,-5,11,19,-4,-6,-10,1,-3
1517145328497403,-5,-14,-27,3,5,13,5,-4
1517145328499351,4,6,40,-5,-9,-3,-9,4
1517145328499351,-9,-21,15,-7,1,10,3,-2
1517145328520420,-8,2,46,7,1,0,-2,-7
1517145328520420,-4,0,-9,-8,-2,-4,-2,-2
1517145328522368,2,14,-9,-8,-7,5,-4,-1
1517145328522368,-3,-22,-25,12,4,7,1,-1
1517145328533375,-5,-7,32,-13,-9,-7,3,-1
1517145328533375,0,3,13,11,-5,6,-5,-1
1517145328542381,0,2,-10,1,3,7,1,0
1517145328542381,4,14,10,-4,-6,-2,3,0
1517145328558394,1,-7,-10,-6,-3,-7,-7,-1
1517145328558394,-9,-21,-7,-7,-14,2,4,-2
1517145328559436,1,0,-8,9,0,4,-3,-1
1517145328559436,2,6,-21,-12,5,5,3,2
1517145328580464,-5,0,9,5,2,-1,-12,-7
1517145328580464,-11,-38,-10,-23,-10,1,3,-4
1517145328581410,0,-4,-18,-3,-1,7,6,3
1517145328581410,0,-12,-7,1,-6,1,-2,1
1517145328593418,0,28,26,-2,1,-12,-5,-1
1517145328593418,10,17,-12,-2,-12,-9,-7,-2
1517145328602424,-15,-24,-44,-38,-2,9,3,-3
1517145328602424,17,38,9,24,24,12,6,10
1517145328625457,-10,-19,26,15,-8,7,2,-4
1517145328625457,-6,-7,-26,-17,0,3,4,2
1517145328626455,-1,16,0,7,-30,-10,-11,-5
1517145328626455,5,26,21,5,36,-3,-2,-2
1517145328640504,-9,-29,-24,-16,-10,-4,0,-2
1517145328640504,6,20,15,8,-10,-5,-7,-1
1517145328641453,1,-2,-8,-7,5,1,-3,-2
1517145328641453,-12,-25,-6,-14,-25,1,0,-5
1517145328653514,6,11,-3,-1,-2,-10,-1,2
1517145328653514,0,-10,2,-1,19,10,2,1
1517145328662467,5,-3,-1,8,2,3,0,-1
1517145328662467,-1,-6,-3,-15,-27,-3,-8,1
1517145328677511,-2,0,-2,1,16,-12,4,-6
1517145328677511,-1,4,16,9,7,11,1,-4
1517145328679482,1,0,-5,6,10,11,3,5
1517145328679482,4,1,51,11,5,-7,5,8
1517145328700548,-6,1,7,-1,-17,4,-14,-11
1517145328700548,-3,-16,-30,-16,-10,2,17,10
1517145328701495,-13,2,32,15,26,14,6,-15
1517145328701495,-2,-11,-7,17,2,18,10,1
1517145328713557,14,15,32,-7,5,-30,7,11
1517145328713557,7,15,-1,4,1,1,-3,2
1517145328728569,3,-17,-8,-1,-11,29,-15,1
1517145328728569,-5,26,21,12,9,-27,-1,-7
1517145328745528,-7,-34,26,-10,0,24,12,-4
1517145328745528,2,17,-6,-7,-12,-13,-16,-4
1517145328746526,0,4,-16,-8,-9,-43,-5,7
1517145328746526,-8,2,20,-2,-3,15,4,-11
1517145328760536,7,24,23,19,-2,4,-11,7
1517145328760536,-10,-13,2,3,3,-6,-5,-9
1517145328761537,-4,-13,-19,-6,-7,-13,-6,-4
1517145328761537,-10,-2,-36,-10,12,0,4,-6
1517145328773599,-4,-11,-39,-13,-6,-4,0,-1
1517145328773599,2,7,31,13,-1,4,-1,1
1517145328782557,0,9,1,12,2,0,2,-3
1517145328782557,0,-12,-15,-6,-13,-5,-8,1
1517145328797617,4,-4,-15,-2,4,5,5,3
1517145328797617,-7,-4,-1,4,3,1,-6,-7
1517145328799565,10,20,12,17,5,-14,-6,1
1517145328799565,-5,-31,-36,-40,-13,8,-1,-2
1517145328820582,-3,-4,11,2,-4,5,1,-1
1517145328820582,0,-25,-12,-5,-1,-3,4,3
1517145328821580,-1,7,-8,-11,-4,-2,-1,-4
1517145328821580,5,1,15,9,1,5,-5,1
1517145328833642,0,12,1,8,-2,-8,-2,3
1517145328833642,6,9,-22,-1,5,4,4,1
1517145328842595,-12,-28,11,11,6,9,8,2
1517145328842595,-2,-2,-8,-15,-10,-7,-9,-3
1517145328857659,11,24,-1,13,21,8,1,3
1517145328857659,-3,22,6,-2,-9,-13,-9,-5
1517145328859606,-7,-14,5,-11,-13,-10,-6,-5
1517145328859606,-9,-13,-5,-3,-4,-5,2,2
1517145328880622,-3,10,9,2,-7,-11,-8,-3
1517145328880622,2,0,3,7,10,7,2,2
1517145328881622,2,12,-6,-2,6,6,0,-1
1517145328881622,-6,-18,-7,-15,-7,3,1,0
1517145328893682,-2,-5,-21,-7,-3,-2,-1,-3
1517145328893682,-1,-3,17,-2,-1,-3,-3,-3
1517145328902654,1,1,4,0,-5,-6,-2,0
1517145328902654,9,13,14,20,-5,-9,-2,2
1517145328917702,3,-10,-15,-25,-4,4,5,4
1517145328917702,-9,-8,-7,-2,9,9,-1,-4
1517145328919649,-4,-5,1,-8,-10,-12,-4,-4
1517145328919649,9,14,27,6,5,-18,1,7
1517145328939666,-15,-18,-60,-5,-4,9,9,-14
1517145328939666,-5,-11,65,-8,-10,2,20,-2
1517145328941666,1,-5,-15,-8,13,-2,-7,1
1517145328941666,3,11,8,18,1,10,-6,1
1517145328953689,-16,-17,34,-22,-36,7,-49,-25
1517145328953689,11,5,-12,3,7,29,6,7
1517145328970685,7,7,-33,22,1,-5,3,6
1517145328970685,-12,-16,-17,-27,-3,-17,3,-11
1517145328976713,9,12,14,-1,2,-4,0,10
1517145328976713,2,4,-30,1,-13,-15,-3,1
1517145328985697,-3,-1,40,8,12,6,7,-4
1517145328985697,6,6,-15,-5,-5,18,-16,4
1517145328999708,-10,-12,-21,9,6,-18,-1,-10
1517145328999708,-2,1,9,6,5,12,8,1
1517145329007712,1,1,-14,-2,-6,6,13,4
1517145329007712,-1,9,-1,11,10,-4,2,0
1517145329013771,-2,-18,16,21,7,-2,5,2
1517145329013771,-3,-6,4,-27,-8,-16,-6,0
1517145329022723,3,21,35,-4,-2,13,0,1
1517145329022723,0,-18,-43,-6,-5,-7,1,-2
1517145329036789,2,-2,-10,2,2,8,6,7
1517145329036789,-5,4,10,0,-6,-14,-11,-3
1517145329043791,-1,-2,-6,-2,-4,-4,-5,-1
1517145329043791,-1,8,30,5,1,0,-2,-3
1517145329059803,6,-4,-10,-2,0,1,6,4
1517145329059803,5,11,-10,16,4,-6,-12,-3
1517145329061750,-4,-14,-6,-19,-5,-2,2,-1
1517145329061750,-4,-9,0,-2,-7,-2,0,-1
1517145329089829,11,33,9,9,9,5,0,3
1517145329089829,-24,-59,-27,-27,-15,-8,-2,-9
1517145329091774,18,39,-1,20,15,4,-3,3
1517145329091774,-7,-9,21,8,-5,-1,-2,-4
1517145329096830,-3,-2,-9,-5,-4,-9,-4,1
1517145329096830,-6,-14,4,-2,9,9,5,7
1517145329103835,-1,-17,-28,6,-5,-8,-4,-5
1517145329103835,4,26,-3,-7,1,12,-1,1
1517145329119844,0,22,20,10,-2,-14,-4,-2
1517145329119844,-9,-1,13,3,1,1,-6,0
1517145329121792,-10,-12,-4,-5,-9,-11,-3,-2
1517145329121792,1,14,5,8,5,1,1,0
1517145329142809,-2,-2,-4,-10,-5,-2,1,0
1517145329142809,3,10,-35,-16,-2,-4,-4,-3
1517145329143809,-2,-6,-3,-11,-8,7,-2,-3
1517145329143809,-3,-9,0,2,9,6,1,-3
1517145329156871,-3,-10,-3,-2,1,3,4,0
1517145329156871,4,-1,5,13,7,-2,-5,-2
1517145329163823,0,-4,-7,-7,-4,-5,-1,-2
1517145329163823,2,-10,-12,-3,-8,-2,-3,5
1517145329179888,10,-8,-10,-8,-6,9,12,15
1517145329179888,-4,5,21,12,4,-29,-1,-8
1517145329181838,-3,8,16,0,21,22,-8,-10
1517145329181838,3,-14,0,4,-10,-30,-1,4
1517145329202917,-5,-1,-14,1,21,14,4,-6
1517145329202917,6,13,-6,7,7,4,1,2
1517145329203851,-5,-13,-16,11,-21,-32,-18,0
1517145329203851,5,12,44,-12,6,17,2,3
1517145329216925,0,-7,17,-3,-5,-16,25,1
1517145329216925,1,-2,-35,-13,-17,-5,-5,-2
1517145329223929,0,-1,13,-6,1,-9,4,0
1517145329223929,7,8,-71,8,-2,17,0,4
1517145329239940,-5,0,16,-1,-9,-15,-8,-8
1517145329239940,5,16,9,-2,0,13,2,2
1517145329245946,3,-8,43,10,5,0,0,4
1517145329245946,-2,1,29,0,-4,-2,-1,-4
1517145329262958,-19,-17,-75,-10,3,5,-4,-9
1517145329262958,1,6,9,11,5,7,3,-1
1517145329263895,2,26,-1,-8,-8,1,-1,0
1517145329263895,-7,-33,12,3,5,-1,1,-6
1517145329276909,-5,-11,-32,-22,-7,3,-8,-3
1517145329276909,0,3,4,15,4,-1,-3,0
1517145329283973,-4,-3,7,-1,-4,-3,4,0
1517145329283973,-4,2,5,5,-4,-3,-1,-4
1517145329299920,2,-2,32,-20,8,5,-3,2
1517145329299920,0,-6,-20,-7,-12,-5,-2,-1
1517145329301925,0,-5,-7,2,1,5,1,0
1517145329301925,-2,-2,7,4,3,-2,0,-4
1517145329321960,3,-1,5,10,-6,-1,-7,-3
1517145329321960,3,-5,10,4,2,-7,-2,-1
1517145329329942,1,1,6,6,3,0,0,-2
1517145329329942,-11,-10,-25,-20,-8,-6,-5,-4
1517145329335950,4,13,20,10,1,7,1,1
1517145329335950,1,-1,-5,-9,-2,-1,0,-2
1517145329344952,1,12,-1,9,9,7,-1,1
1517145329344952,-3,0,-25,-13,-5,-15,-2,-3
1517145329359988,-12,-24,-7,-11,-9,11,-4,-5
1517145329359988,0,4,1,-6,-9,-1,-1,-1
1517145329361965,-8,-9,-6,-20,-23,-6,-3,-2
1517145329361965,5,19,0,5,25,7,-1,1
1517145329382978,4,12,1,27,22,-3,0,5
1517145329382978,-7,-5,2,-1,-7,0,-1,-2
1517145329383980,-10,-11,-7,-5,-5,-3,-1,-4
1517145329383980,-3,10,-4,-25,-17,-6,-5,-4
1517145329395994,-5,-10,-13,-11,-9,-6,1,0
1517145329395994,-4,7,1,2,-1,11,0,7
1517145329405000,8,-4,-7,0,8,1,0,-11
1517145329405000,-3,-15,-6,3,5,6,3,-2
1517145329420058,5,11,14,8,1,-5,-6,-1
1517145329420058,-5,-6,-9,-12,-6,-1,-1,-1
1517145329422009,-4,-14,-6,-6,-7,-2,2,3
1517145329422009,0,-2,0,-2,-8,-10,-2,-2
1517145329443034,0,-8,3,-2,5,-3,-5,-2
1517145329443034,2,-8,3,10,4,2,-1,-3
1517145329444021,1,0,-14,-5,-2,3,4,4
1517145329444021,0,-5,3,-2,-3,3,9,-1
1517145329456085,-5,-5,-2,-13,-22,-19,-11,-3
1517145329456085,10,11,15,15,17,5,15,10
1517145329465054,-18,-9,-11,7,17,-21,-15,-20
1517145329465054,0,0,3,4,-4,15,5,3
1517145329480101,4,4,17,1,-14,4,-8,4
1517145329480101,4,3,-10,3,5,20,0,-1
1517145329482061,0,-14,15,-28,-7,-12,-2,2
1517145329482061,-1,-7,-90,-9,-2,3,8,1
1517145329502117,4,11,31,-5,-8,-5,-4,-2
1517145329502117,0,4,5,-7,-1,-16,2,-4
1517145329504081,-2,-13,-19,-7,-8,11,-1,1
1517145329504081,-2,19,61,15,-1,-19,-10,-6
1517145329516127,-5,-42,-93,-11,-3,9,3,0
1517145329516127,-6,8,37,1,-7,-11,-6,-6
1517145329525079,-4,-10,-11,-11,-2,-2,-1,4
1517145329525079,-5,-5,19,5,1,-3,-9,-1
1517145329540143,0,16,12,22,5,-6,6,-3
1517145329540143,0,-1,-5,-7,6,9,3,1
1517145329542094,1,5,-38,-2,-3,-3,2,2
1517145329542094,0,-5,28,3,-3,1,-6,0
1517145329563162,-5,-1,9,-10,-2,-3,0,0
1517145329563162,-5,-10,-10,13,-1,-2,-8,-7
1517145329565108,6,19,9,1,4,7,3,2
1517145329565108,0,8,-9,-11,-5,-7,-2,-3
1517145329576115,-2,6,13,6,-1,-10,-5,-4
1517145329576115,-7,-37,-40,-19,-9,5,6,-1
1517145329585122,9,22,22,15,5,-4,-2,8
1517145329585122,-9,-22,-5,-9,-2,4,-5,-13
1517145329601145,1,-15,-19,-9,-3,1,7,1
1517145329601145,-7,-3,1,-3,2,-3,-5,-4
1517145329602151,5,13,17,15,4,-2,-1,5
1517145329602151,2,13,3,3,10,5,-2,1
1517145329630154,-6,-2,9,-8,-10,5,3,0
1517145329630154,-4,8,-7,-3,-5,-10,-6,-2
1517145329631155,-5,-8,-4,-4,4,2,1,-5
1517145329631155,6,23,10,12,-2,3,-4,3
1517145329636161,-3,-1,2,3,9,6,3,-1
1517145329636161,2,8,2,2,-5,-7,-5,1
1517145329645164,-4,3,1,1,6,4,-1,-3
1517145329645164,0,-11,-2,-2,-4,2,3,1
1517145329660175,-4,5,7,-8,-6,-2,-3,0
1517145329660175,1,-10,-1,0,-6,-9,-4,-4
1517145329661211,1,0,1,1,3,0,-1,-1
1517145329661211,-4,-12,-7,-12,3,-1,1,0
1517145329682246,4,-2,2,5,3,5,-1,-2
1517145329682246,-3,5,10,9,2,-4,1,0
1517145329684205,0,-9,-12,-8,-13,-2,-1,-1
1517145329684205,1,-4,5,0,-7,-3,2,4
1517145329696256,2,1,4,-5,-3,-9,3,-1
1517145329696256,-1,-2,-8,4,0,-12,-18,-5
1517145329705207,0,-3,-5,-6,-3,20,12,2
1517145329705207,-7,-6,-2,0,0,4,-9,-10
1517145329720272,4,12,25,10,10,3,2,1
1517145329720272,-1,-10,5,-7,-1,-1,1,-2
1517145329721255,-5,-14,-34,-16,-10,-5,-3,-2
1517145329721255,3,7,12,2,-6,-4,-5,2
1517145329742287,3,8,12,13,-9,-16,-9,0
1517145329742287,0,4,10,8,13,2,8,-5
1517145329744234,6,0,-2,-15,0,14,5,5
1517145329744234,2,-7,-11,-8,5,-5,-11,-1
1517145329756297,-1,4,2,-1,2,-5,5,0
1517145329756297,2,1,10,2,-9,-15,-5,3
1517145329765249,-5,-3,-30,5,-7,0,-3,-4
1517145329765249,-4,-9,8,15,16,2,9,0
1517145329780315,0,11,69,6,-2,11,-6,-3
1517145329780315,-6,-10,-100,-16,-13,-5,-11,-2
1517145329781297,-8,-31,3,-16,1,-10,-7,-5
1517145329781297,-3,12,36,-14,-9,-9,2,0
1517145329802292,-3,-8,-11,8,3,8,2,-1
1517145329802292,-3,0,-37,-1,-2,5,1,-1
1517145329804277,1,19,14,7,-2,-6,-2,-1
1517145329804277,-1,-18,-21,-2,-4,-3,2,1
1517145329816340,-2,-5,2,-5,-1,2,0,-2
1517145329816340,-1,-1,27,2,-1,1,-2,-1
1517145329825292,0,0,-11,6,1,-3,-1,0
1517145329825292,-1,-2,-4,-2,-3,-2,-5,-13
1517145329840357,2,-3,-22,-8,-2,-1,-2,2
1517145329840357,5,6,15,6,8,10,6,4
1517145329841302,-6,-15,3,-11,-9,-5,-4,-6
1517145329841302,0,7,8,10,2,-4,-6,1
1517145329862372,-13,-24,-62,-31,-12,-4,-3,1
1517145329862372,3,2,0,-5,8,12,7,-6
1517145329864319,-1,2,37,20,5,1,1,2
1517145329864319,0,13,-23,-6,-3,1,1,3
1517145329876382,-7,-4,1,-4,-10,-17,-8,-5
1517145329876382,-5,-4,9,-13,-8,-6,-4,0
1517145329885353,-4,4,8,7,11,12,0,0
1517145329885353,-2,-5,-7,4,-1,3,3,0
1517145329907351,3,19,9,8,7,-9,-3,-1
1517145329907351,1,3,22,-1,-2,7,0,1
1517145329909352,-2,-1,3,1,-9,-12,-6,-5
1517145329909352,-1,-4,-17,-8,-2,-4,1,2
1517145329922415,2,7,0,9,4,7,1,-1
1517145329922415,-1,-3,3,-11,-5,-5,-3,-1
1517145329924362,4,-2,-10,-5,-5,-4,-1,0
1517145329924362,5,3,9,16,11,5,3,2
1517145329936425,3,-5,1,0,3,2,2,1
1517145329936425,-1,0,0,-12,-22,-10,-10,-3
1517145329945377,-6,-2,4,-3,8,10,-7,-12
1517145329945377,-6,-11,-6,-2,-4,9,5,-2
1517145329959445,5,4,6,22,16,-13,9,4
1517145329959445,-9,-8,2,15,19,13,-9,-6
1517145329966448,0,3,-10,-12,-14,-14,-9,3
1517145329966448,-7,-4,1,-7,-16,-5,0,-8
1517145329982457,6,2,4,14,-1,-22,-4,2
1517145329982457,8,9,21,-10,1,17,20,5
1517145329984405,-1,1,0,-5,-12,-7,1,-3
1517145329984405,-4,-10,-44,-19,3,-19,0,0
1517145329996468,-5,-1,-7,-10,-13,12,-10,-7
1517145329996468,6,11,43,17,2,-3,-1,1
1517145330005420,6,14,-2,10,8,2,1,2
1517145330005420,3,-6,32,11,6,5,6,3
1517145330019487,-10,-15,-69,-17,-3,4,-6,-6
1517145330019487,-6,-26,-43,-10,-7,-15,-7,-2
1517145330027435,-6,3,-12,-4,-2,7,-1,0
1517145330027435,1,15,47,0,-6,-2,-9,-1
1517145330042464,-1,-6,36,4,1,2,5,1
1517145330042464,0,8,4,4,3,4,-2,0
1517145330044447,3,7,20,14,0,-9,0,1
1517145330044447,-10,-26,-17,-21,-6,-3,-3,-1
1517145330065481,5,18,-2,2,-3,4,0,1
1517145330065481,2,16,13,-6,-4,-8,-2,-3
1517145330066480,-12,-33,-5,-1,-1,5,7,-1
1517145330066480,10,23,8,11,2,1,-3,3
1517145330079526,-3,-1,-14,-11,0,10,-1,-1
1517145330079526,5,-3,-13,1,6,2,-1,0
1517145330086531,6,21,16,18,6,-6,1,4
1517145330086531,-9,-25,-35,-21,-16,0,0,-3
1517145330102543,-10,-10,-1,-11,-5,1,-1,1
1517145330102543,6,26,14,17,6,-13,-3,0
1517145330104489,-4,-10,0,-10,-2,8,-1,-3
1517145330104489,5,12,2,6,3,-5,-2,1
1517145330132563,6,12,7,4,4,7,-1,-1
1517145330132563,-9,-16,-5,-3,3,2,2,-2
1517145330134511,3,-1,-4,0,6,2,1,0
1517145330134511,-1,5,-6,0,-4,-3,-5,-2
1517145330139570,-7,-9,-4,-8,-13,-7,-1,-3
1517145330139570,-3,-8,-1,-5,-9,0,-1,0
1517145330146576,3,-3,-5,-2,5,-3,1,-1
1517145330146576,2,2,4,6,11,6,2,0
1517145330162585,1,-9,2,-2,-5,-7,-2,0
1517145330162585,-2,-6,-2,-7,-5,4,1,0
1517145330164532,3,7,4,3,0,-1,-6,0
1517145330164532,-2,-6,-3,-5,-7,-2,-1,2
1517145330185602,5,3,5,6,12,2,13,8
1517145330185602,-3,0,-4,1,-4,-13,1,-1
1517145330187578,-1,-4,1,0,-7,-3,-3,-3
1517145330187578,-5,-3,-7,-5,1,-4,-9,-9
1517145330199575,0,-3,-6,-16,-36,-16,2,2
1517145330199575,-3,-5,1,-6,9,11,-5,-2
1517145330206616,-1,-1,4,15,20,16,23,3
1517145330206616,3,4,6,14,17,4,-11,-1
1517145330222628,-1,2,-8,-7,-1,-1,-5,-6
1517145330222628,-3,-2,4,-4,-10,-12,-3,1
1517145330224575,-1,-4,-20,-16,-15,11,-2,-2
1517145330224575,3,12,35,13,-6,2,2,2
1517145330245593,-4,-11,-51,-1,5,2,-4,-5
1517145330245593,-3,-7,-23,-11,-4,-6,-3,-3
1517145330246591,-3,1,0,5,-6,-11,-7,-1
1517145330246591,1,2,-6,-18,-4,-2,4,1
1517145330258601,-5,4,42,12,5,3,-7,-3
1517145330258601,-3,-1,-6,-10,-6,-4,0,-1
1517145330267608,2,-4,29,8,1,-9,-4,3
1517145330267608,-5,-22,-48,-12,-3,1,1,-3
1517145330282672,-2,5,50,-1,3,-3,-2,0
1517145330282672,1,-5,-28,-2,-2,8,-2,2
1517145330288674,-3,0,13,4,2,-7,2,-2
1517145330288674,2,12,20,3,-1,-2,-1,2
1517145330304686,-3,-15,-41,-11,0,1,-3,-2
1517145330304686,2,3,26,1,-3,-2,2,-1
1517145330306634,-2,1,-16,-7,-5,-5,-6,-3
1517145330306634,0,7,14,4,-4,-4,0,0
1517145330318697,0,-15,-9,1,8,4,1,-1
1517145330318697,0,7,6,8,0,1,0,-1
1517145330327649,-4,-2,-22,-14,-7,-4,-5,-5
1517145330327649,5,13,-10,6,-3,-6,0,0
1517145330342659,-9,-8,15,-5,0,8,3,0
1517145330342659,6,15,15,15,6,-5,-1,2
1517145330343674,-10,-29,-16,-14,0,7,1,-4
1517145330343674,13,32,14,13,0,-7,-4,1
1517145330364678,-13,-38,-9,-2,2,8,4,-3
1517145330364678,2,-2,2,-3,-7,-7,-2,0
1517145330372693,0,10,7,4,-6,-13,-1,0
1517145330372693,-8,-14,-12,-7,-2,4,-2,-3
1517145330378740,6,21,-8,-4,3,2,-4,-2
1517145330378740,-6,-8,-2,2,13,10,0,-2
1517145330387691,-3,-12,5,2,-5,-17,-4,-1
1517145330387691,-4,-9,-11,-10,-2,6,1,-1
1517145330402756,4,14,11,7,-2,1,1,-1
1517145330402756,-7,-8,-5,-4,-8,-8,-2,-4
1517145330403737,2,11,-4,-6,-2,2,-2,-1
1517145330403737,-6,-13,2,-4,0,-3,1,0
1517145330424717,5,8,-1,5,-3,0,-1,0
1517145330424717,2,0,-4,-1,2,1,0,-1
1517145330426719,1,2,6,2,-6,-3,1,-1
1517145330426719,-2,-13,-7,-5,-3,3,-1,1
1517145330438744,2,5,4,11,17,-2,2,0
1517145330438744,2,-2,0,-5,-16,-6,-4,0
1517145330447734,-8,-5,-4,-4,1,11,-8,-7
1517145330447734,-4,-6,-2,2,-5,-4,2,-3
1517145330462798,3,6,-1,-4,-13,-15,-4,3
1517145330462798,-6,-5,6,13,16,32,-7,-5
1517145330463781,-2,1,-6,5,20,-9,5,0
1517145330463781,-7,-6,-6,-7,-12,-4,-9,-10
1517145330484813,-2,2,2,6,18,21,13,-3
1517145330484813,0,-5,-7,-13,-24,-45,-6,0
1517145330486761,3,4,3,-3,-15,8,7,-1
1517145330486761,1,-1,2,0,2,12,1,4
1517145330498825,-2,0,-4,-6,-11,-12,-8,-5
1517145330498825,-1,0,-3,1,5,8,2,0
1517145330507778,3,4,1,-2,1,-1,6,1
1517145330507778,0,-2,4,11,8,-6,1,2
1517145330522842,-1,5,10,-6,-2,-1,-3,2
1517145330522842,-1,-3,-1,4,-1,2,-1,-1
1517145330523842,-2,-1,1,10,-4,-3,-8,0
1517145330523842,-1,-2,-10,-4,5,4,-1,1
1517145330544857,-2,2,14,-21,-9,-8,-9,-4
1517145330544857,-1,-13,-21,2,3,1,-3,-2
1517145330546803,-2,-5,-35,-22,-12,-7,-4,-3
1517145330546803,2,7,28,29,5,6,5,1
1517145330558830,0,-1,-7,15,3,0,-2,-1
1517145330558830,0,10,25,-15,-1,-5,4,2
1517145330567836,-1,-2,3,-1,-1,1,-1,-1
1517145330567836,-2,-4,-14,-4,-1,-2,-2,-2
1517145330582886,-2,3,1,-4,-1,-6,0,1
1517145330582886,-2,3,6,4,-1,8,3,-1
1517145330583831,1,-3,9,-1,1,1,-3,0
1517145330583831,0,-12,-8,-12,-1,-3,2,-1
1517145330604898,3,3,9,11,0,0,-2,-1
1517145330604898,-4,-10,-10,0,-3,-2,-1,-5
1517145330606846,7,22,13,5,4,-2,0,3
1517145330606846,-1,-14,-12,-9,-1,-1,0,-1
1517145330618911,-15,-19,-20,-12,-8,0,-4,-4
1517145330618911,5,11,10,6,5,1,3,3
1517145330627861,-7,-26,-2,-11,2,9,3,-3
1517145330627861,9,19,5,9,-4,0,-1,3
1517145330641889,2,-4,-18,-8,-4,-5,-4,-1
1517145330641889,-8,4,17,14,4,-7,-1,0
1517145330649877,5,20,8,3,4,4,-1,0
1517145330649877,-8,-6,-9,-7,2,2,5,-1
1517145330664947,2,11,1,7,5,-4,-5,-1
1517145330664947,-4,0,-1,-3,-5,1,-1,-3
1517145330666889,-3,-6,-5,-4,-5,2,-2,-1
1517145330666889,-4,0,7,-1,-4,-9,-4,-4
1517145330678953,1,1,0,2,0,-3,1,0
1517145330678953,2,0,-11,1,-1,-1,0,-1
1517145330687910,-1,-7,-8,0,8,1,0,-1
1517145330687910,-3,-13,-13,-17,-18,-14,-4,-3
1517145330702971,1,4,4,2,-2,10,-1,0
1517145330702971,-2,-16,-6,2,12,6,5,0
1517145330703917,2,0,2,-5,-13,-6,-2,-1
1517145330703917,5,5,0,-6,-10,-7,-9,3
1517145330726931,-3,-9,-1,5,11,0,9,-2
1517145330726931,5,-1,-5,-6,-10,-8,10,5
1517145330727932,1,2,2,2,13,-2,9,-2
1517145330727932,2,-1,0,-5,-5,14,3,5
1517145330748985,-6,-3,-2,1,1,-3,9,-7
1517145330748985,4,3,-3,-3,-1,12,3,6
1517145330750950,-5,-3,-1,3,-7,-14,-15,-3
1517145330750950,-3,0,-1,3,15,25,-1,-5
1517145330763013,1,-1,2,1,4,11,0,0
1517145330763013,-3,-3,-3,-8,-12,-13,-5,-6
1517145330763975,0,1,-2,2,-9,1,0,2
1517145330763975,0,-1,3,-1,-3,-10,2,-3
1517145330784976,4,1,-4,-7,-15,-13,-9,4
1517145330784976,-1,-4,4,9,12,2,3,-3
1517145330786990,3,-3,-18,-10,0,-8,-2,0
1517145330786990,-2,2,15,3,-2,3,-5,-1
1517145330799038,-2,1,-15,-3,3,-10,5,0
1517145330799038,2,-3,19,24,-1,10,-4,2
1517145330807988,-4,-7,2,-24,0,-3,-2,-2
1517145330807988,-1,-1,2,2,-2,-6,3,0
1517145330823000,2,3,19,3,-7,1,-2,2
1517145330823000,-4,11,-6,-23,1,-6,-10,-4
1517145330824016,-5,-2,5,28,-1,-2,-2,-5
1517145330824016,-4,1,5,3,11,-3,-1,-3
1517145330845015,-2,-1,32,-2,-4,-1,-8,-3
1517145330845015,-1,-16,-48,-19,-2,-2,-1,-2
1517145330847016,0,3,59,-4,-2,2,2,0
1517145330847016,-2,4,-36,-4,-2,-5,-3,-1
1517145330867031,-3,-10,-21,1,2,-1,-2,-1
1517145330867031,3,8,25,2,-1,-4,1,-3
1517145330869035,4,8,1,6,2,1,0,2
1517145330869035,-10,-29,-36,-15,-10,-5,-3,-5
1517145330882096,8,17,26,13,6,1,-1,1
1517145330882096,-7,-14,-5,-9,-2,7,3,-4
1517145330890048,3,9,18,3,-6,-12,-9,-1
1517145330890048,-3,-8,4,-3,3,7,1,-2
1517145330913063,2,13,-6,1,3,3,-3,0
1517145330913063,2,4,-11,-6,-11,-7,-2,3
1517145330914067,-2,-2,-24,-3,1,6,2,-2
1517145330914067,-4,-2,9,-3,0,-19,-6,-4
1517145330919106,-9,-6,-19,-1,0,12,2,-1
1517145330919106,-4,-15,-1,2,10,7,2,1
1517145330928074,-7,-3,-14,-6,7,3,0,5
1517145330928074,1,12,3,9,-8,-4,-1,-12
