timestamp,emg1,emg2,emg3,emg4,emg5,emg6,emg7,emg8
1517145103788950,-2,0,-13,-9,-1,0,0,-3
1517145103788950,-2,-13,1,-1,-3,-2,-1,-1
1517145103789951,-1,4,2,1,-2,-1,-1,2
1517145103789951,-2,-7,-4,3,-1,0,-2,-2
1517145103790951,-3,0,9,9,-1,-1,-1,0
1517145103790951,0,-3,-2,-11,-1,0,-2,0
1517145103791952,-1,0,-5,-11,0,0,-2,-2
1517145103791952,-1,-9,-7,-4,-2,-2,1,-2
1517145103798957,0,10,1,11,1,-2,0,-2
1517145103798957,-1,1,3,6,2,1,0,-2
1517145103807964,-4,-4,-4,-7,-5,-3,-2,0
1517145103807964,-1,-8,-3,1,1,0,-1,0
1517145103820972,2,11,4,-5,-1,-2,-3,1
1517145103820972,-3,0,1,5,1,0,-1,-2
1517145103828978,0,4,-2,8,3,1,0,-3
1517145103828978,-2,2,0,-4,-1,0,-1,-2
1517145103834982,-3,-10,-5,-7,-5,-2,-1,-4
1517145103834982,-2,2,-1,-1,-4,-1,1,4
1517145103861001,0,-2,-3,-6,0,-1,-1,-3
1517145103861001,0,6,2,6,0,-2,-1,1
1517145103866004,-3,-11,-2,-4,-1,0,0,-1
1517145103866004,0,9,4,-6,-3,-4,0,-1
1517145103899028,-2,-4,-16,-6,-3,0,-4,-6
1517145103899028,-2,-5,3,0,-1,-2,-2,-1
1517145103900028,0,-2,-10,0,1,0,-1,1
1517145103900028,-2,9,-6,-1,1,-1,-1,-7
1517145103904031,-1,16,-3,-2,1,0,0,13
1517145103904031,0,0,11,0,-1,-2,-2,-6
1517145103905032,-1,-9,-1,-3,-3,-2,-2,-2
1517145103905032,0,3,9,2,-3,-1,-1,2
1517145103910036,1,2,-12,-2,-2,-1,-1,0
1517145103910036,0,-2,-17,-1,1,1,1,0
1517145103918041,-2,2,27,2,-2,-1,0,6
1517145103918041,-3,-2,-2,-3,1,-1,-3,0
1517145103926055,2,-8,-3,0,0,1,0,-4
1517145103926055,1,0,-8,0,-1,0,-3,-2
1517145103941058,1,-3,0,2,-2,-2,-1,-4
1517145103941058,-3,-2,-13,-4,-3,-1,-2,-2
1517145103947061,0,-3,12,4,0,-2,0,1
1517145103947061,-2,3,-2,3,1,1,0,1
1517145103971079,2,-4,-2,0,-1,-1,-2,-3
1517145103971079,2,-3,7,-3,-4,-2,0,1
1517145103973081,-3,-8,-5,-1,2,1,0,-2
1517145103973081,-2,-1,3,-2,-4,-5,-1,-3
1517145103985089,-1,-1,-8,-1,-2,-2,0,2
1517145103985089,0,-5,-6,1,-2,1,-1,0
1517145103994095,-2,-3,0,-5,-2,-2,-1,-3
1517145103994095,-2,1,-1,-2,-3,0,-2,1
1517145104009107,0,3,-4,-4,1,-1,0,1
1517145104009107,-1,-17,-11,0,1,0,-2,-2
1517145104010107,-1,24,12,0,-3,-3,-2,-5
1517145104010107,-1,-6,7,-2,0,1,0,-5
1517145104032122,-1,2,-14,-6,-2,-2,0,1
1517145104032122,0,-3,5,0,0,-3,0,0
1517145104034124,-1,-1,17,6,-2,-2,-3,0
1517145104034124,1,-2,-12,1,3,1,2,-1
1517145104045131,-2,6,12,-1,-1,1,-2,-3
1517145104045131,0,2,-18,-3,-2,-2,1,2
1517145104054138,0,-7,7,1,0,-2,-1,-7
1517145104054138,-1,4,3,-5,-4,-1,0,3
1517145104069148,-2,-1,-1,1,1,-1,-1,-2
1517145104069148,0,4,6,0,0,-1,-2,0
1517145104070149,1,4,6,1,-1,-2,0,-1
1517145104070149,-2,-10,-9,-2,-2,-2,-2,2
1517145104091164,-2,-3,-14,-7,-4,0,0,-3
1517145104091164,-1,4,14,0,1,-1,-1,0
1517145104093165,0,-13,-6,-10,0,1,-2,0
1517145104093165,-3,4,-11,2,-3,-4,-1,2
1517145104105174,-1,-18,-5,-1,-1,0,-2,-3
1517145104105174,1,4,-1,3,0,-2,-1,-2
1517145104114180,-2,-5,-11,2,-2,-1,1,1
1517145104114180,2,-4,19,1,2,-1,-3,-3
1517145104129191,-2,1,-10,-2,-1,-1,-2,-2
1517145104129191,-1,-9,2,-1,-2,-1,-2,-1
1517145104130192,-2,0,4,0,-3,-1,-2,0
1517145104130192,1,2,1,0,-1,-1,1,0
1517145104152207,-1,4,3,0,0,-1,1,-2
1517145104152207,-2,-1,-4,-1,2,1,0,-2
1517145104157210,-2,-5,-11,-2,-3,-2,0,0
1517145104157210,0,4,25,4,-1,-1,-1,-1
1517145104165217,0,-5,-20,2,-1,1,0,-3
1517145104165217,-1,4,6,-11,-1,-3,-4,-2
1517145104174224,0,-14,1,-3,0,-1,-1,-3
1517145104174224,-2,8,-20,-6,-3,-1,-2,-1
1517145104196238,0,2,3,5,1,-3,-1,1
1517145104196238,-2,-3,3,10,-1,-1,-1,-2
1517145104198241,-1,-1,-10,-12,-3,-1,-1,0
1517145104198241,0,-14,10,-1,-2,-2,0,-2
1517145104212256,-2,1,5,-3,0,-1,-3,0
1517145104212256,0,11,-7,-2,-4,-2,0,-1
1517145104213255,-1,-11,7,5,2,0,-1,0
1517145104213255,-1,16,-8,0,-1,1,-1,-2
1517145104225260,-2,-7,-13,-4,-4,-2,-1,-2
1517145104225260,-1,-1,12,2,-1,-2,0,-2
1517145104234266,-3,-3,-13,-2,1,0,-2,-4
1517145104234266,4,1,13,-2,-1,-1,-1,1
1517145104249276,0,-24,2,3,1,1,0,0
1517145104249276,-3,14,-1,2,0,1,0,1
1517145104250277,-1,7,-3,-12,-5,-3,1,1
1517145104250277,-3,-6,0,-1,-2,-1,-1,-2
1517145104271291,3,11,30,-3,-1,-2,-2,-1
1517145104271291,2,-15,-20,1,-3,-2,1,0
1517145104273293,-1,-14,-6,2,-1,2,-2,-3
1517145104273293,-3,-3,-14,-4,1,-2,-3,1
1517145104285301,-1,1,19,-2,-1,-3,-2,-2
1517145104285301,0,-5,1,-5,-1,-2,-3,-2
1517145104294308,1,7,-13,4,1,0,-1,3
1517145104294308,-1,2,21,-4,-2,-1,-1,-3
1517145104316323,-1,1,-4,6,-1,-1,1,0
1517145104316323,-2,-10,-18,-1,3,2,-1,1
1517145104318325,-2,6,17,-7,-3,-3,-2,-3
1517145104318325,0,-9,-8,4,-2,-1,-1,0
1517145104331335,-3,-5,-8,-1,0,0,0,-2
1517145104331335,-1,3,16,-2,-3,-3,0,-2
1517145104333336,2,17,35,10,2,0,0,0
1517145104333336,-7,-35,-58,-8,-3,0,-3,-2
1517145104345345,-3,7,-19,-5,-2,-2,-2,-2
1517145104345345,-1,-10,19,4,-1,-2,-2,-1
1517145104360355,0,8,8,-5,-1,0,0,-2
1517145104360355,3,7,-4,-1,1,-1,1,-2
1517145104370362,-2,-3,-14,-7,-2,-1,0,2
1517145104370362,0,-23,-12,-3,-1,-1,-1,0
1517145104372364,-1,2,17,4,-4,-4,-1,-3
1517145104372364,-2,11,-16,-4,-2,2,2,0
1517145104391377,1,-17,-7,3,0,1,-1,-2
1517145104391377,-3,24,14,-6,-1,-4,-2,-3
1517145104393388,-4,-36,-30,-2,1,-1,-1,0
1517145104393388,-2,5,36,-2,-1,-3,-1,0
1517145104405394,-2,9,-21,2,0,-1,-2,-2
1517145104405394,-2,3,1,-2,-2,0,-2,1
1517145104414394,-2,6,-11,-6,-3,-3,-1,4
1517145104414394,0,-1,-5,1,-1,0,-1,-1
1517145104428403,3,-1,29,2,1,-1,-1,0
1517145104428403,2,14,-2,1,0,0,-2,-2
1517145104430404,-2,-2,-18,2,-1,0,-2,-1
1517145104430404,-2,-6,12,-4,-1,-1,-1,-1
1517145104451420,-1,0,6,0,-1,-1,-2,-1
1517145104451420,-2,11,-50,-14,-4,-3,1,-2
1517145104453423,1,7,5,2,0,0,1,-1
1517145104453423,-1,-3,2,0,-4,-2,-3,-5
1517145104474436,-2,10,3,-1,-2,-1,0,4
1517145104474436,-2,-16,1,-2,-3,-1,-2,-2
1517145104476449,-1,1,5,-2,-2,-2,-3,-2
1517145104476449,0,-3,-21,3,1,-2,1,-1
1517145104488446,-4,-8,5,-11,-6,-4,-2,0
1517145104488446,0,-4,3,1,0,1,0,-2
1517145104490447,-1,-2,-4,0,-1,-2,-1,-3
1517145104490447,4,8,28,2,1,2,0,3
1517145104511463,-3,-12,-9,-6,-2,-1,-3,-6
1517145104511463,-6,-15,-36,-6,-1,-1,-1,0
1517145104513465,1,5,7,1,-2,-2,-1,-3
1517145104513465,-1,2,-2,0,-2,-1,-3,0
1517145104533478,0,15,9,3,0,-2,1,-1
1517145104533478,0,-5,18,2,0,1,0,-1
1517145104535480,-1,-3,-16,1,-1,-1,-1,1
1517145104535480,-2,-5,-13,-3,1,-2,-1,0
1517145104548488,0,5,8,-1,1,0,0,-1
1517145104548488,0,-1,24,-3,-3,-1,-2,1
1517145104550489,-1,-7,-25,-4,-2,-1,0,-1
1517145104550489,-1,6,25,0,-1,-1,0,-1
1517145104578510,-2,-7,-56,-11,-2,-3,-1,-4
1517145104578510,1,3,2,-4,-3,-3,-2,0
1517145104580511,3,6,52,20,5,3,0,-2
1517145104580511,-6,-20,-75,-21,-9,-6,-5,-2
1517145104593520,-3,8,-5,8,-1,-1,-3,-2
1517145104593520,-2,-17,12,-2,5,3,2,-2
1517145104595522,-3,2,21,-8,-4,-4,-1,0
1517145104595522,0,-3,-29,5,1,3,1,-1
1517145104607529,0,7,15,-5,-2,-3,0,0
1517145104607529,-2,-12,-13,-4,-3,-2,-3,-2
1517145104616536,1,-2,-21,2,2,0,-1,-3
1517145104616536,-4,3,50,3,-1,-1,-1,-3
1517145104631547,-1,-5,7,0,-2,-1,-1,-2
1517145104631547,-2,8,21,7,1,0,-1,-1
1517145104632548,-1,-1,-25,-7,-3,-1,-1,-1
1517145104632548,-2,1,30,4,-1,-1,-3,0
1517145104653563,0,-5,-18,4,-1,1,-1,0
1517145104653563,-1,-17,-50,-5,-2,-5,-1,1
1517145104655564,-2,-4,2,-7,-7,-4,-4,-3
1517145104655564,3,8,9,-16,-1,1,0,2
1517145104668573,0,3,24,1,1,-1,0,-1
1517145104668573,-1,-3,-12,11,4,1,0,0
1517145104674578,-4,-10,27,-3,-3,-3,-1,-1
1517145104674578,1,12,49,10,2,-1,-2,-1
1517145104691590,0,-9,-16,1,2,2,1,0
1517145104691590,-1,16,3,-7,-3,-3,-1,-4
1517145104692592,-1,-2,-9,1,4,3,0,0
1517145104692592,-4,-16,-20,-7,-7,-5,-4,-2
1517145104713605,2,1,14,8,1,-1,1,-1
1517145104713605,0,1,-5,-13,-4,-3,-3,0
1517145104715607,1,7,-7,8,5,3,2,1
1517145104715607,-1,1,5,9,1,0,-1,-3
1517145104728617,-2,-8,-17,-6,1,1,-1,-1
1517145104728617,1,4,39,5,-1,-3,-2,-3
1517145104735622,-2,-4,-42,-1,-1,0,0,-1
1517145104735622,0,-9,-30,-11,-4,-3,-1,2
1517145104751633,-1,3,8,3,0,-1,0,0
1517145104751633,-1,4,13,3,0,1,1,0
1517145104753634,0,-2,11,0,-2,-2,-1,-1
1517145104753634,0,3,8,12,1,3,0,-2
1517145104774653,0,-9,-11,-1,-3,-1,-2,-2
1517145104774653,1,6,14,1,2,0,-3,0
1517145104775656,-1,1,-10,-15,-6,-3,-1,1
1517145104775656,-1,-11,-41,-6,-2,-3,-1,0
1517145104788660,-1,8,34,-7,-4,-4,-1,0
1517145104788660,1,-2,-5,3,0,-1,1,0
1517145104795672,0,-2,-12,12,1,1,-1,-2
1517145104795672,-1,2,9,-11,0,1,-3,0
1517145104812676,0,-3,-16,-1,-4,-2,-1,2
1517145104812676,-3,-4,-12,1,1,0,-1,-2
1517145104814677,0,6,38,0,2,-1,-1,0
1517145104814677,-2,-10,-33,-8,-3,-4,0,-2
1517145104833691,-1,4,10,2,-2,-3,1,-3
1517145104833691,-3,-5,-13,-2,-4,-1,0,0
1517145104835692,1,0,7,6,4,1,0,-1
1517145104835692,2,8,19,11,11,6,3,-2
1517145104848702,0,-7,-18,-7,-3,1,-1,-1
1517145104848702,-3,-5,3,1,-3,-3,-2,-4
1517145104856707,-2,0,-6,-15,-4,-2,-1,1
1517145104856707,0,2,-4,8,4,-1,-2,1
1517145104869717,-2,4,17,-2,3,-2,1,0
1517145104869717,1,4,13,10,0,0,1,-1
1517145104878723,-6,-16,-37,-11,-7,-4,-4,-4
1517145104878723,-1,3,12,-2,-3,-2,-1,0
1517145104892733,1,6,15,0,0,0,-1,-1
1517145104892733,-1,-7,6,-1,-4,-2,-1,0
1517145104893733,-2,-1,-10,2,-2,-2,-1,0
1517145104893733,1,2,45,-6,0,-2,0,-3
1517145104915788,-4,-3,-33,-8,-3,-1,-1,-2
1517145104915788,0,1,-9,12,3,2,-2,1
1517145104916766,-1,-3,-5,-2,-3,-1,0,-2
1517145104916766,-2,-2,-6,-12,-2,-2,-1,0
1517145104938766,-2,-2,21,2,-3,-2,-2,-2
1517145104938766,1,3,-2,-11,-3,-3,-4,-1
1517145104938766,-1,2,18,5,-1,0,-1,-2
1517145104938766,0,-6,-27,8,-2,-3,1,-2
1517145104961845,-2,4,4,-4,-1,-2,-2,-2
1517145104961845,-2,-1,-17,-1,-1,-1,0,0
1517145104961845,1,9,47,3,2,-1,-3,-2
1517145104961845,-2,-3,2,-9,-3,-1,-2,-3
1517145104975792,-2,-10,-26,-6,-6,-2,-4,-3
1517145104975792,-1,0,14,-3,-2,-1,-1,1
1517145104976793,3,5,6,8,1,2,0,0
1517145104976793,0,5,23,12,3,1,-1,-1
1517145104997807,-2,-14,-42,-18,-7,-6,0,-2
1517145104997807,0,8,7,-2,-1,1,1,-1
1517145104998809,-5,-6,12,-7,-5,-4,-2,-1
1517145104998809,-1,2,-4,18,4,0,1,1
1517145105028883,-2,4,2,-8,-1,0,-2,1
1517145105028883,0,-3,12,-5,0,-2,1,-3
1517145105029833,1,-6,-31,-5,-1,0,0,1
1517145105029833,-2,4,-15,2,-4,-1,-2,-2
1517145105035888,0,1,6,5,2,1,0,0
1517145105035888,-2,2,19,4,1,-1,-2,-2
1517145105036869,0,-5,-26,2,2,1,0,0
1517145105036869,-5,-15,-24,-24,-12,-6,-5,-3
1517145105057869,0,3,20,2,1,-2,-1,-2
1517145105057869,0,-5,-20,-7,0,0,0,-2
1517145105058850,0,9,-6,11,1,-1,1,1
1517145105058850,1,-3,14,0,-1,0,-1,2
1517145105072915,-4,-1,9,0,0,0,1,0
1517145105072915,-3,1,-28,7,-1,-1,2,-3
1517145105080920,3,9,36,-7,-1,-1,2,0
1517145105080920,-5,-13,-25,-12,-4,-3,-1,0
1517145105095941,2,2,14,6,0,-1,-1,-3
1517145105095941,-1,-4,-19,-7,-2,-3,-3,-1
1517145105096879,-2,-2,-12,-1,-2,-1,-2,-2
1517145105096879,-1,0,-3,3,2,-1,2,-1
1517145105117958,2,-3,3,14,2,1,-1,1
1517145105117958,-1,-6,1,-20,-3,-3,-1,0
1517145105118907,6,11,-57,0,-1,0,-1,-1
1517145105118907,-3,-1,32,-6,-3,-2,-3,-1
1517145105132974,-1,-2,6,8,-1,-2,0,-1
1517145105132974,-1,1,3,-7,1,0,0,0
1517145105140915,-5,-11,-1,-12,-3,-3,-1,-4
1517145105140915,2,3,-4,12,-2,1,1,-1
1517145105155985,-2,-1,-22,-1,0,0,-1,-2
1517145105155985,-1,-2,30,9,2,-1,-1,1
1517145105156922,-4,-5,-7,-3,-4,-2,-2,-4
1517145105156922,0,0,-4,-11,-1,-1,1,-3
1517145105177936,-3,-11,-14,-2,-3,-4,-3,-1
1517145105177936,4,9,-10,1,0,1,0,0
1517145105178942,-6,-7,5,-3,-5,-1,-1,-1
1517145105178942,1,0,-21,-3,-1,-1,0,-1
1517145105192947,2,1,5,2,1,0,1,0
1517145105192947,-1,3,42,6,-2,-1,-2,-2
1517145105200953,-2,-10,-50,5,1,-2,0,-4
1517145105200953,3,7,14,-30,-10,-6,-1,-1
1517145105215961,-1,0,-8,3,4,2,-3,-1
1517145105215961,-2,-4,31,-1,-3,-1,-3,0
1517145105216963,-1,0,28,13,-1,0,2,2
1517145105216963,-2,-2,-8,-1,3,2,-2,0
1517145105237977,0,0,-24,-5,0,-1,1,-1
1517145105237977,0,5,-2,12,1,1,0,-1
1517145105238978,-2,-11,-20,-17,-3,-4,-3,-2
1517145105238978,1,-2,18,14,2,0,0,-2
1517145105253988,0,7,-10,-11,-6,-3,0,0
1517145105253988,-2,-10,-26,-8,1,-1,3,-2
1517145105260994,1,-1,2,5,-5,-2,-2,-1
1517145105260994,-1,3,-5,2,2,0,-1,-4
1517145105276004,-1,4,-15,14,5,1,2,-1
1517145105276004,-5,-12,14,-20,-8,-6,-3,-4
1517145105276004,-1,2,-6,-1,-1,-3,-2,1
1517145105276004,-1,5,25,13,0,2,1,-1
1517145105298021,-2,-2,16,9,7,2,-1,0
1517145105298021,1,2,-20,2,-2,-3,-1,-2
1517145105299021,-1,4,48,-22,-2,-1,-2,-1
1517145105299021,-1,0,0,0,-3,-2,-3,-1
1517145105321051,-5,-10,-8,9,-6,-5,0,-4
1517145105321051,-2,0,-6,3,4,-1,-2,-2
1517145105322039,0,1,6,2,4,0,1,-1
1517145105322039,1,1,-9,7,0,1,0,0
1517145105336048,1,4,14,-8,-1,1,-2,-2
1517145105336048,0,-2,-3,-12,-6,0,-2,0
1517145105336048,-4,-13,-17,-3,-9,-7,-2,-3
1517145105336048,-3,-6,-18,8,3,-2,0,0
1517145105358062,2,4,20,-10,1,-2,0,1
1517145105358062,-1,1,-18,11,0,2,0,0
1517145105359063,-1,2,8,-18,2,5,-3,-2
1517145105359063,0,-2,-35,1,-1,0,-1,0
1517145105372106,-3,-8,25,-2,-9,-7,-6,-2
1517145105372106,-2,2,7,10,5,2,2,1
1517145105381118,0,1,-10,1,0,1,1,-1
1517145105381118,-1,3,17,5,-5,-4,0,-3
1517145105396150,-2,0,-17,-16,-2,2,0,-1
1517145105396150,0,-3,-28,-6,0,-2,-2,0
1517145105396150,-1,1,52,-7,-2,-3,-3,-1
1517145105396150,-1,-2,-21,7,5,-2,-1,1
1517145105418104,1,-1,-9,-3,-2,-1,0,-1
1517145105418104,-2,-1,8,6,-1,-1,-2,-2
1517145105419105,1,6,2,14,2,3,0,0
1517145105419105,3,-1,8,-5,10,3,1,-2
1517145105432170,-6,-9,2,-19,-16,-7,-4,-2
1517145105432170,2,0,-21,-20,-4,0,-1,0
1517145105441123,-1,-1,-8,5,-2,-2,-1,-1
1517145105441123,0,0,19,9,-3,-1,-1,-2
1517145105456152,0,4,5,10,6,4,-1,-1
1517145105456152,-1,-5,-15,-7,-2,-2,1,-4
1517145105456152,-3,1,-7,-2,2,-3,0,-2
1517145105456152,-4,-5,-10,-5,-4,-3,-1,-1
1517145105478202,0,-2,6,2,1,1,-1,1
1517145105478202,-3,-3,-6,-2,-3,-1,-3,-3
1517145105479152,2,-1,-6,4,-1,1,0,-1
1517145105479152,-4,-1,0,4,-3,-2,-2,-1
1517145105492162,-2,-1,-9,-29,3,0,0,-3
1517145105492162,-1,1,7,6,-2,-2,0,0
1517145105500219,-3,-1,-5,4,0,0,-2,-1
1517145105500219,-1,-4,-5,-2,-5,-1,-2,-1
1517145105516196,2,3,6,8,3,2,-1,-1
1517145105516196,2,-3,-11,-15,-5,-4,-3,1
1517145105516196,-1,-1,-2,6,3,-2,-1,-4
1517145105516196,-8,-1,-2,-14,-5,-1,-2,-2
1517145105538189,-2,-1,4,13,3,4,8,2
1517145105538189,-8,-4,0,3,-1,0,-4,-2
1517145105539192,12,2,-3,2,0,-2,-1,0
1517145105539192,6,-5,-8,-14,-3,-3,-5,-7
1517145105552256,-12,-3,1,10,-3,-1,-4,-3
1517145105552256,-1,-1,-3,-10,0,-3,-2,-3
1517145105561224,0,3,-1,3,-1,4,6,12
1517145105561224,9,-7,-1,-9,-2,-5,-5,-9
1517145105575220,5,0,-1,0,1,-1,-1,-5
1517145105575220,-4,-4,0,8,-3,-1,-1,-1
1517145105576219,4,-2,-3,-2,0,0,-3,-1
1517145105576219,3,2,-1,-7,1,1,3,3
1517145105598299,-4,1,-1,4,-1,-3,-2,0
1517145105598299,-1,-3,-1,3,-1,-4,-6,-3
1517145105599241,-6,-2,-3,-5,-1,-1,-2,-8
1517145105599241,-8,-2,-3,-2,0,2,1,9
1517145105612248,4,-2,-2,-3,-5,-3,-5,-6
1517145105612248,3,0,0,2,-3,-3,2,2
1517145105621250,-1,-3,-1,-5,-2,0,-1,0
1517145105621250,-10,0,-2,0,0,-1,-3,-5
1517145105635260,0,-1,-2,0,-1,-2,-3,3
1517145105635260,0,-2,0,-2,0,0,-1,2
1517145105636260,0,-4,-1,0,-1,-3,-3,-4
1517145105636260,6,1,-6,-6,-3,-2,1,1
1517145105666336,-3,1,1,5,-1,0,1,-1
1517145105666336,-9,-4,-4,-20,-4,-3,-4,-8
1517145105667285,6,1,0,9,5,1,4,1
1517145105667285,-18,-1,0,4,-2,-1,-2,-4
1517145105672340,10,-1,-3,-3,-6,-3,-2,-1
1517145105672340,14,0,2,6,-1,1,2,1
1517145105688352,-1,-3,-5,-4,-10,-5,-3,-2
1517145105688352,3,-2,-1,0,14,5,0,-2
1517145105695358,-6,-1,3,9,4,0,2,2
1517145105695358,0,2,7,21,0,-1,1,2
1517145105696307,1,-5,-14,-46,-8,-6,-1,1
1517145105696307,-6,1,3,7,-3,3,1,0
1517145105718372,7,-2,-3,-7,-3,-2,0,1
1517145105718372,2,3,-1,7,-3,-2,-2,2
1517145105719323,-8,0,1,11,2,-1,-3,-1
1517145105719323,2,-3,-2,-5,0,-1,-4,0
1517145105732385,-4,-2,-1,-2,2,1,-3,-2
1517145105732385,3,0,0,-3,-3,1,1,0
1517145105740388,-8,-2,1,2,-2,-3,-2,-2
1517145105740388,0,1,-2,-3,-5,-3,0,-1
1517145105755400,0,2,1,5,0,-1,1,-1
1517145105755400,-6,-2,-6,-11,1,-1,-2,-1
1517145105756349,-3,-4,-5,-7,-2,-2,-2,-4
1517145105756349,2,0,-2,-7,1,-2,-1,0
1517145105778415,-1,-2,4,-3,-2,-1,0,1
1517145105778415,-4,-1,-6,-8,-2,-1,-1,-4
1517145105779397,-3,-1,-1,13,2,0,-1,-1
1517145105779397,0,-1,0,-2,-4,-2,0,-3
1517145105794372,-1,-2,-2,4,-5,-1,-2,-2
1517145105794372,0,1,3,-5,3,0,0,-2
1517145105800416,0,-2,-5,-3,-3,0,-1,0
1517145105800416,0,2,7,27,-6,-2,0,-3
1517145105815393,-3,0,5,-4,13,3,-2,0
1517145105815393,-2,-4,-24,-37,-10,-3,-1,0
1517145105816392,2,2,4,6,0,-2,-1,-1
1517145105816392,2,-1,-1,-6,0,0,-1,0
1517145105838458,-3,0,4,9,-4,-1,-1,-3
1517145105838458,0,0,5,12,4,0,-1,0
1517145105839446,-2,-1,-2,-10,-2,0,-3,-2
1517145105839446,0,-2,-2,5,-4,-2,-2,-2
1517145105852468,0,-6,-11,-14,0,-1,-1,-1
1517145105852468,0,0,1,2,-1,1,0,1
1517145105860422,-2,0,2,2,1,2,-1,0
1517145105860422,1,1,5,12,10,-1,2,-1
1517145105875430,-3,0,-6,-13,-3,-3,-2,-1
1517145105875430,0,-3,-6,-10,-12,-6,-3,-2
1517145105876432,-1,1,6,2,-3,-2,-1,-3
1517145105876432,2,-2,-2,-6,-2,0,1,2
1517145105898502,1,-3,-2,-3,0,-1,0,0
1517145105898502,-3,0,3,13,6,1,-1,-2
1517145105899468,-2,0,1,-15,-6,-2,0,1
1517145105899468,-1,-2,-1,2,3,2,-2,-1
1517145105921519,-1,3,-1,14,4,2,1,-1
1517145105921519,-1,-1,-1,-3,7,0,1,-2
1517145105922470,0,-1,-1,3,0,0,0,1
1517145105922470,-2,-2,-4,-15,-4,-4,1,-2
1517145105935529,0,-1,0,-4,-9,-5,-2,-1
1517145105935529,0,0,3,9,1,1,-1,-3
1517145105936476,-2,-5,-3,-3,1,-2,0,-2
1517145105936476,-1,-5,-3,-7,-6,-2,-1,0
1517145105966553,3,-1,-3,-1,0,0,-2,1
1517145105966553,-1,1,6,16,-1,-1,-1,-1
1517145105967504,-2,-2,-7,-23,1,-1,-2,-2
1517145105967504,1,1,-4,-2,-4,0,-2,2
1517145105981562,-4,-2,-1,0,1,-1,0,-3
1517145105981562,0,-4,-12,-18,-4,-3,-3,0
1517145105982515,0,1,6,13,-2,0,0,-1
1517145105982515,-1,-1,0,-1,0,-1,-1,1
1517145105995518,1,-1,-2,-3,-3,-2,0,-1
1517145105995518,-3,0,4,8,-2,0,1,-3
1517145105996523,0,-1,-3,6,-1,1,0,-2
1517145105996523,-2,-2,-4,-11,-3,-3,-3,-1
1517145106018589,-3,-1,-2,-4,-1,-1,-2,0
1517145106018589,-3,-3,2,3,0,-1,-1,-1
1517145106018589,0,-3,-2,1,1,-1,-1,0
1517145106018589,0,-1,-1,3,0,-1,0,-3
1517145106041552,0,0,0,-2,-1,1,-2,-2
1517145106041552,1,-2,-4,-11,-1,-1,-2,1
1517145106042552,-1,0,1,9,-3,-1,-2,-2
1517145106042552,-2,-3,-6,-18,-3,-2,0,0
1517145106055558,-1,0,3,1,-2,-1,-3,-2
1517145106055558,-3,-1,-1,12,1,-3,-1,-1
1517145106056560,-2,-3,-8,-18,-8,-3,-2,0
1517145106056560,-2,-1,0,6,-1,0,-2,-3
1517145106078576,-1,0,-1,-4,-2,-1,0,-2
1517145106078576,0,3,5,13,-1,1,-1,0
1517145106078576,0,0,-2,-4,3,0,-1,1
1517145106078576,0,-1,0,0,-1,-1,-1,-3
1517145106101646,-2,-3,-3,-7,-3,-4,-2,-2
1517145106101646,-2,-2,1,2,-1,-2,-1,0
1517145106102593,-1,0,-2,7,1,0,0,0
1517145106102593,0,-1,-2,-5,-2,-1,-1,0
1517145106115642,-2,-2,-2,1,-2,-1,-1,1
1517145106115642,-1,0,0,-5,-1,0,0,-2
1517145106116605,-2,0,0,-1,-1,-1,-1,-3
1517145106116605,-1,-2,-2,5,0,0,-1,-1
1517145106138672,-1,-3,-1,0,-1,0,0,-1
1517145106138672,-2,-3,-2,-6,-1,0,-1,1
1517145106139621,-1,1,0,1,-2,0,-1,-3
1517145106139621,0,0,0,0,0,-1,-2,-2
1517145106161688,-2,0,-2,-3,0,-2,-1,2
1517145106161688,-1,-5,-1,-3,0,0,-1,-2
1517145106162653,-1,-3,1,4,-1,-2,-1,-2
1517145106162653,-1,0,-1,-3,-1,-1,-1,1
1517145106175643,0,0,-2,-3,-2,-2,0,0
1517145106175643,0,0,0,-2,-1,0,-1,-1
1517145106176645,-1,-2,-1,5,1,1,1,-1
1517145106176645,-1,-1,-2,-2,-2,-2,0,-4
1517145106198680,-1,-2,-3,-5,0,0,0,-3
1517145106198680,1,2,-1,-1,-1,0,-1,1
1517145106198680,-2,-2,-2,1,0,-1,-1,-1
1517145106198680,0,-2,0,-3,-3,-1,0,0
1517145106221733,-3,-1,0,1,0,-2,0,-1
1517145106221733,0,-1,-1,-2,-1,-2,-2,-1
1517145106222679,-1,-1,-2,1,-1,-1,0,0
1517145106222679,-1,2,-1,-2,1,-2,-1,0
1517145106243729,2,-2,0,-1,0,0,-1,-1
1517145106243729,-2,-1,-1,-3,-1,-1,-1,-1
1517145106244695,0,-2,2,7,0,-1,1,-2
1517145106244695,-1,-2,1,-15,-2,-1,-2,-1
1517145106257724,0,-2,-6,1,0,-1,0,-1
1517145106257724,1,0,1,1,1,-1,-1,-2
1517145106258702,-1,-1,-2,-4,-2,0,-2,0
1517145106258702,-3,1,2,13,1,1,-1,0
1517145106281722,2,0,-5,-19,-5,-2,0,0
1517145106281722,-1,-3,-2,-3,0,-1,0,0
1517145106281722,0,1,0,1,-1,-1,-1,-2
1517145106281722,-1,-2,-2,4,-1,-1,-1,0
1517145106295784,-2,1,0,0,-2,-1,-2,-2
1517145106295784,0,-1,-2,-1,-1,-1,-1,-1
1517145106296729,-2,-1,-3,-3,-2,-2,-1,0
1517145106296729,-2,0,-1,-2,0,-2,0,0
1517145106318746,0,0,0,-2,0,0,-1,0
1517145106318746,1,-3,-1,0,-1,-2,-1,0
1517145106318746,0,0,0,-1,1,-1,-2,0
1517145106318746,-1,-3,-2,-4,-1,-1,-1,-2
1517145106341761,-3,-1,2,3,-1,-2,0,-3
1517145106341761,-1,1,-1,0,-2,-1,-2,0
1517145106341761,-1,-2,-3,-4,0,-2,-2,-1
1517145106341761,0,-1,-2,1,0,-1,-1,-1
1517145106356796,-3,-1,0,0,-3,-2,-3,-2
1517145106356796,-2,-1,-2,-3,0,0,-1,-2
1517145106356796,1,-2,1,-4,-2,-2,0,-3
1517145106356796,-2,-2,-2,0,0,0,-1,-2
1517145106377845,-2,-3,0,4,0,1,0,0
1517145106377845,0,0,-3,-8,-3,-1,-1,-1
1517145106378792,-1,-1,0,4,-2,1,-2,0
1517145106378792,-1,-1,0,-2,-2,0,-1,1
1517145106401866,-1,-2,-4,-1,0,1,0,-1
1517145106401866,-2,-1,-1,0,-1,0,-1,-1
1517145106401866,-2,-2,0,-3,-2,-1,-1,-2
1517145106401866,0,-3,1,0,-1,-2,-2,0
1517145106415871,0,1,0,5,0,-2,-3,-1
1517145106415871,-1,-3,-2,2,-2,-1,1,-1
1517145106416817,-2,-2,-3,-6,-1,-2,0,-2
1517145106416817,0,-1,-1,-2,-3,-1,0,0
1517145106437884,0,-2,0,-1,-3,-2,0,-1
1517145106437884,0,1,0,0,-1,-2,-3,0
1517145106438833,-1,-2,1,2,-1,0,-1,-2
1517145106438833,0,-1,-3,-3,-1,0,-2,-3
1517145106461888,0,0,-2,-3,1,0,-2,-2
1517145106461888,-4,0,-1,2,-2,-2,0,1
1517145106461888,-1,-1,-4,-3,-2,-1,-1,0
1517145106461888,-1,-2,0,0,-1,0,1,0
1517145106475859,-1,-1,-1,-2,-1,-1,0,-3
1517145106475859,1,-2,0,1,-1,-1,0,-4
1517145106476858,-3,1,-5,-4,-2,-1,-2,-1
1517145106476858,1,0,0,-1,1,0,-3,0
1517145106497873,-2,-1,1,1,-1,0,0,-1
1517145106497873,0,-3,0,-1,0,0,-1,-2
1517145106498874,-1,0,-1,-2,-1,-1,-1,-2
1517145106498874,0,1,-3,-2,-1,-3,1,-2
1517145106521890,-1,-3,0,-1,0,-2,-2,-1
1517145106521890,0,-1,0,-2,0,0,-1,-2
1517145106521890,0,-1,0,1,0,0,0,-1
1517145106521890,-2,-3,-1,-3,-2,1,0,0
1517145106534900,-1,-3,-1,-2,-1,-2,-1,1
1517145106534900,1,-1,-2,-3,-3,-3,-2,-1
1517145106542903,-1,-2,-1,-1,-1,-2,-2,1
1517145106542903,-1,0,-2,1,-2,-3,-1,-1
1517145106557920,1,-1,-2,-1,-1,-1,-1,1
1517145106557920,-2,-1,-1,0,0,0,-2,-1
1517145106558915,0,1,0,2,1,-2,0,0
1517145106558915,-2,-4,0,-1,-2,0,-1,-2
1517145106581942,-1,0,-1,0,-1,-3,-1,-1
1517145106581942,-1,-2,-2,-2,-3,-2,1,-2
1517145106581942,-1,-1,-2,-2,0,-1,0,-2
1517145106581942,0,-1,-3,-2,0,-2,0,-1
1517145106594940,-1,-2,0,-1,-2,-1,-3,0
1517145106594940,-2,-2,0,-1,0,0,-1,3
1517145106603005,0,-3,0,0,-2,-1,-3,-2
1517145106603005,-2,-1,0,-3,-2,-1,-1,-2
1517145106626970,-1,-2,-2,-1,0,0,0,0
1517145106626970,0,-1,-4,-1,-1,0,-1,-3
1517145106626970,1,-2,-1,-1,-2,0,0,-1
1517145106626970,1,0,-2,-2,-1,-2,-3,-1
1517145106641974,-1,1,0,-1,-2,-1,-1,-2
1517145106641974,-3,-1,-1,0,-3,-2,-1,-2
1517145106642976,-1,0,-1,-1,-1,-2,-1,0
1517145106642976,-2,1,-2,-1,-1,-1,0,-1
1517145106655040,-2,-1,-1,-4,-1,0,0,-1
1517145106655040,-2,0,-2,1,0,-1,1,-1
1517145106663046,0,-4,-1,-2,-2,-2,-2,-1
1517145106663046,0,0,-2,-3,-2,-1,-2,0
1517145106678057,-3,1,-1,-2,-1,-1,-3,-1
1517145106678057,0,1,-1,0,-2,-1,0,-2
1517145106679006,-1,-3,1,-2,-1,-1,-1,0
1517145106679006,-2,-2,0,1,-2,-1,-2,-1
1517145106702073,1,1,-1,0,-1,-1,0,-3
1517145106702073,-2,-3,0,0,-1,-2,-2,-2
1517145106703025,-2,0,0,2,-1,-2,-2,-1
1517145106703025,0,-3,-1,-3,-1,-1,0,1
1517145106715032,-1,1,-2,1,-2,0,-1,1
1517145106715032,0,-2,0,-2,-1,0,0,-1
1517145106723063,-2,-1,-2,1,-1,0,-1,-1
1517145106723063,-4,-2,-1,1,0,-1,-1,-2
1517145106738099,-1,-3,-1,0,-2,0,-1,-1
1517145106738099,-1,-1,-1,3,-3,-3,-1,0
1517145106739052,0,-1,0,0,2,-1,-1,-1
1517145106739052,-2,-1,-6,-13,-2,-1,-2,1
1517145106761059,-2,0,-1,-2,-1,0,-1,-1
1517145106761059,1,1,-1,0,0,1,0,0
1517145106762063,-3,1,0,0,-4,-1,0,-2
1517145106762063,1,-2,1,1,-1,0,0,-1
1517145106775069,-2,-3,-1,-3,-1,0,0,-1
1517145106775069,-2,0,0,-2,0,-1,-1,-2
1517145106783129,-1,-2,-3,-2,-1,-1,0,0
1517145106783129,0,-1,-1,1,0,0,-1,-3
1517145106799138,-1,-1,-2,0,-2,-2,-2,0
1517145106799138,0,-1,-2,-1,1,-2,-2,-1
1517145106799138,-1,-2,-2,-3,0,0,-1,-2
1517145106799138,-2,2,0,1,1,-1,-2,-2
1517145106821154,0,-2,-1,-1,-1,0,0,-2
1517145106821154,0,-3,-2,-3,0,0,-1,-1
1517145106822103,-1,0,-3,-3,0,-2,-1,0
1517145106822103,-2,0,0,1,-4,-1,-1,-1
1517145106835172,-1,-2,-1,-2,-2,-2,-1,0
1517145106835172,-1,0,-1,-1,-2,-2,-1,1
1517145106843121,-1,1,-1,-2,-1,0,0,-3
1517145106843121,1,0,0,3,0,1,-1,2
1517145106858150,0,-1,1,-1,-2,-2,-3,0
1517145106858150,-1,-2,-1,-3,-2,0,-1,-3
1517145106859138,0,-2,-1,0,-1,-1,-2,-1
1517145106859138,-1,1,-2,0,-1,-2,0,0
1517145106881204,-1,-3,0,-1,1,-1,0,2
1517145106881204,-2,-3,-1,-3,-4,0,-1,-1
1517145106882151,-2,0,-1,0,-1,-1,1,-2
1517145106882151,1,-4,-1,-1,0,-1,0,0
1517145106904219,-2,1,-1,1,0,-1,-1,-3
1517145106904219,-1,1,-3,-1,0,-1,-1,-1
1517145106905179,-2,-1,-2,-2,-1,-3,-1,0
1517145106905179,0,1,-2,-1,-1,0,-1,1
1517145106918230,-1,0,-1,1,-1,-1,0,-2
1517145106918230,1,-1,-1,-1,0,0,-2,-1
1517145106919176,-2,0,0,0,-2,0,0,0
1517145106919176,1,-3,-1,-1,0,-1,0,-1
1517145106941186,-2,-1,-1,-1,-1,-2,-2,0
1517145106941186,-1,-1,-1,-1,-1,0,-1,-1
1517145106942188,-2,-3,-1,-2,-2,0,-2,-1
1517145106942188,-1,-3,-1,-1,0,-1,0,-1
1517145106964222,0,-2,0,-1,0,-1,-2,0
1517145106964222,0,1,0,-1,0,-1,-1,0
1517145106964222,0,0,-1,-3,-1,-1,-1,0
1517145106964222,-2,1,0,0,-2,0,-1,0
1517145106986274,-2,-2,-2,-3,-4,-1,-1,-2
1517145106986274,-3,-2,-1,0,-1,-2,-1,0
1517145106987221,-1,0,-1,0,-2,-1,-1,-2
1517145106987221,-2,0,0,-1,-1,-2,-1,-1
1517145107001287,2,-2,-2,-2,0,0,2,0
1517145107001287,-2,-2,0,-1,-1,-1,0,-1
1517145107002228,0,-2,0,-2,-3,0,-1,0
1517145107002228,-2,0,-2,0,0,0,-2,-3
1517145107024276,0,-1,1,-1,0,0,0,-2
1517145107024276,-1,-2,-3,0,-1,0,-1,0
1517145107024276,-1,1,-1,0,0,-3,-2,-2
1517145107024276,1,-2,-1,-3,-1,-1,0,-1
1517145107038311,0,0,-1,1,-1,-2,-1,0
1517145107038311,-2,0,0,-2,-1,-1,-2,-1
1517145107039272,0,0,-3,0,0,1,-2,-1
1517145107039272,-1,-1,-1,-2,-2,0,0,-1
1517145107061375,0,-1,0,0,0,0,-1,-1
1517145107061375,-1,-1,-2,-4,-2,-3,1,0
1517145107062324,-1,-1,0,2,-1,-1,-2,-2
1517145107062324,-1,-2,-2,-2,-2,-2,-1,-1
1517145107084358,0,-3,-3,-3,-1,0,-1,-1
1517145107084358,0,-1,-1,-2,-1,0,-1,-1
1517145107084358,0,-1,-1,-3,0,-1,-1,0
1517145107084358,0,-1,-1,1,-3,-3,-1,0
1517145107098402,-2,-1,0,-2,-2,-2,-3,0
1517145107098402,0,1,-2,0,-1,-1,-1,0
1517145107099382,-3,-3,-2,-3,0,-1,-2,0
1517145107099382,0,-1,-2,-1,-1,-3,-1,-1
1517145107121417,0,-1,-1,-2,-1,-1,0,-3
1517145107121417,1,-1,1,-1,-1,0,-2,0
1517145107122366,1,-2,0,0,-2,-1,0,-1
1517145107122366,0,0,-2,-2,-1,0,-2,0
1517145107144391,-2,-2,-1,0,-1,-2,-1,-3
1517145107144391,-1,0,-2,1,0,-1,0,-2
1517145107144391,-2,-1,-2,-1,-1,-1,-1,-4
1517145107144391,-2,-2,1,-2,-2,-1,-1,0
1517145107158391,-3,1,-2,-3,-1,-1,0,0
1517145107158391,-1,-2,0,-1,-2,0,0,-1
1517145107159391,0,-2,-2,0,-2,-2,0,-1
1517145107159391,-1,-1,1,1,-1,-2,-2,-1
1517145107181460,-1,0,-1,-2,-2,-2,-1,-2
1517145107181460,-1,0,-1,-2,-1,-1,-2,0
1517145107182407,-2,-1,0,-1,-2,-1,0,-2
1517145107182407,-1,-2,-1,-3,-1,-1,0,-2
1517145107204427,1,0,0,1,1,-1,-1,0
1517145107204427,-2,-2,-2,-1,1,-1,-1,-1
1517145107204427,-1,-1,-2,-2,-2,-1,-1,-1
1517145107204427,-1,-3,-3,-2,-2,0,0,-2
1517145107218485,-1,-2,-2,-1,-1,-2,0,0
1517145107218485,-2,0,-2,-2,-1,-2,-1,-1
1517145107219462,-2,0,-1,-2,0,-1,-1,1
1517145107219462,-1,1,0,-1,0,-2,-1,-2
1517145107249458,-1,-1,-1,0,-2,-1,0,-2
1517145107249458,1,-3,-3,-1,-2,-1,-2,-5
1517145107249458,-1,-1,-1,-1,-1,-2,-1,-1
1517145107249458,-1,-1,-2,-2,0,0,-3,-1
1517145107264466,0,-1,-2,1,1,0,0,-1
1517145107264466,-1,-1,-1,-2,-2,0,-2,0
1517145107264466,0,-2,-1,-1,-1,-2,-2,0
1517145107264466,-2,1,-1,-1,-1,-2,-1,-2
1517145107286534,-1,0,1,-1,0,0,-2,-1
1517145107286534,0,-2,-2,-1,0,-1,0,0
1517145107287483,0,-1,0,-2,-1,0,-3,-3
1517145107287483,0,-3,1,-1,1,0,-1,0
1517145107301544,-1,-3,-3,-1,-2,-1,0,-2
1517145107301544,-1,1,-1,-1,-1,-1,-2,-2
1517145107302509,0,-2,-1,-2,-2,-1,-2,0
1517145107302509,-1,-2,-2,-1,-1,-1,-3,-2
1517145107323561,-1,0,1,-2,-2,-3,0,-1
1517145107323561,-2,-3,-3,-2,0,-2,0,2
1517145107324509,0,-1,0,1,-2,-1,1,-1
1517145107324509,0,-1,-1,-2,-2,-1,-2,0
1517145107338572,-2,-3,-1,1,-2,-2,-1,1
1517145107338572,-2,0,-1,-2,-1,-1,-1,0
1517145107339538,-1,0,-1,0,0,0,-1,0
1517145107339538,0,-2,-3,1,0,0,-1,0
1517145107361535,-1,-1,-3,0,-3,-1,-2,-2
1517145107361535,-1,0,2,-2,-2,-2,-1,-2
1517145107362534,-3,-1,-3,-2,-3,-1,-1,0
1517145107362534,-1,0,1,0,-2,-1,0,-1
1517145107383565,-2,-2,0,-1,0,-1,-1,-2
1517145107383565,-1,-2,-1,-2,-1,-3,-1,-2
1517145107384550,-1,-2,0,2,-2,-1,0,-2
1517145107384550,2,-1,-1,-2,-2,-1,-1,0
1517145107398620,0,0,-1,-2,0,0,-2,1
1517145107398620,0,-1,0,1,0,-1,1,-2
1517145107398620,-1,-1,-1,-3,-1,0,-1,-1
1517145107398620,-3,0,-2,-1,0,-1,-2,-1
1517145107421578,1,-1,-1,-1,0,-2,-1,-2
1517145107421578,0,-3,0,-2,-2,0,-2,0
1517145107422578,-2,-3,-2,-1,-1,0,-1,1
1517145107422578,-2,-2,-3,0,-2,-1,-1,0
1517145107443644,-2,-2,0,-3,1,-1,0,-1
1517145107443644,-1,1,-1,1,-2,-1,-1,1
1517145107444593,0,-1,0,-1,0,-2,-1,-1
1517145107444593,-1,-4,0,-2,-1,0,-1,-2
1517145107457622,-3,-3,-1,-1,0,0,-1,-2
1517145107457622,0,0,-2,-3,-1,-1,-1,-1
1517145107465673,-2,1,-1,-3,-2,-1,0,-2
1517145107465673,-1,0,-1,-1,1,-3,0,-2
1517145107481660,-1,-1,-1,2,-2,0,-1,1
1517145107481660,-1,-4,-1,-1,-1,-1,0,-1
1517145107482630,-2,-1,-1,-3,-1,0,0,-1
1517145107482630,-1,-1,-1,-3,-3,-1,-1,-1
1517145107503698,0,-2,-1,-2,0,-3,-1,-2
1517145107503698,-2,-1,-1,0,-1,-1,0,-1
1517145107504637,0,-3,-2,-1,0,-2,-1,0
1517145107504637,-2,-1,-1,-1,-1,-1,-1,-2
1517145107517708,2,0,-1,0,-1,-1,-1,-2
1517145107517708,-1,0,-2,-1,-1,0,0,-1
1517145107526652,-2,-1,-1,0,-1,-1,0,-3
1517145107526652,-2,0,1,-1,-1,0,-1,0
1517145107541662,0,-1,0,-2,-1,-2,-1,-2
1517145107541662,0,-1,0,0,-2,-1,-1,-2
1517145107542664,-1,0,-1,0,0,0,-1,0
1517145107542664,-2,-2,-3,1,-1,-2,1,0
1517145107563731,-2,0,-1,0,-2,-1,-1,1
1517145107563731,-3,-1,-2,-1,-1,-2,-1,-3
1517145107565678,-1,-4,-1,-1,-1,-1,-3,-2
1517145107565678,-1,-2,-2,0,-1,1,0,-3
1517145107577743,0,-2,-3,0,-1,0,0,0
1517145107577743,-1,-1,0,-1,-1,-2,-2,-2
1517145107586694,0,-1,-1,-1,1,-1,-1,-1
1517145107586694,-1,0,-2,-2,1,-1,1,-1
1517145107601704,-2,0,-2,-2,-1,-2,-2,-2
1517145107601704,0,-2,0,-1,-1,0,-1,0
1517145107602704,0,-1,0,-2,-2,-2,-1,-1
1517145107602704,0,-3,0,2,-2,0,0,-2
1517145107623774,-2,1,0,-2,-1,-1,-1,-2
1517145107623774,-2,-1,-2,-3,-1,-1,-1,2
1517145107629724,-1,0,-2,-2,0,0,-1,0
1517145107629724,-1,-1,0,-2,0,-2,-2,-1
1517145107637784,-1,-3,-1,0,-2,-2,-2,-2
1517145107637784,1,0,-1,0,0,0,-1,-4
1517145107646738,0,0,1,0,-1,-2,-1,-1
1517145107646738,1,1,-1,-2,0,-1,-3,0
1517145107661802,-1,0,0,-1,0,0,0,-2
1517145107661802,-2,-2,-1,-2,-2,-1,-1,-2
1517145107662748,-1,0,-2,-1,-1,-1,1,-2
1517145107662748,-1,-4,-1,-2,-1,-3,-2,0
1517145107683819,-1,-2,-1,-1,-2,-1,-2,-2
1517145107683819,-2,-2,-2,3,0,0,-2,-3
1517145107685781,-1,1,-2,-1,-3,-2,-1,-2
1517145107685781,0,-1,1,-1,0,-1,-1,-2
1517145107697828,-2,0,-2,-2,-2,0,-1,-1
1517145107697828,-1,-1,-2,-3,-1,1,0,-2
1517145107706781,0,-1,0,1,0,-1,0,-2
1517145107706781,-2,0,-2,0,-2,-3,-1,0
1517145107721849,-1,-2,-1,-2,-4,-2,-3,0
1517145107721849,0,-1,0,0,-2,-1,-1,1
1517145107722790,0,-1,-2,-3,-1,-1,-1,-2
1517145107722790,0,-3,-1,-1,-2,-1,0,1
1517145107744859,-1,-1,-3,0,1,-2,1,-2
1517145107744859,-1,-1,0,-2,-1,-1,-2,-2
1517145107745865,-1,-2,-2,0,0,-1,-2,-1
1517145107745865,0,-1,-1,0,0,-1,-2,0
1517145107757835,0,-3,-1,-1,-1,1,0,-1
1517145107757835,-1,0,-1,0,-1,0,-2,-1
1517145107766838,-1,0,0,-1,-3,-2,0,1
1517145107766838,0,1,0,-2,-1,0,0,0
1517145107781831,1,-1,-2,-1,0,-2,-1,-2
1517145107781831,0,0,0,-1,-1,-2,-1,-1
1517145107782839,-1,-3,0,0,0,0,-1,0
1517145107782839,-3,-1,-1,-3,-1,-1,-1,-3
1517145107803867,-1,1,0,-1,-1,-1,-1,-1
1517145107803867,-1,0,0,2,0,-1,1,-1
1517145107805868,0,0,-2,-3,-2,-2,-3,-1
1517145107805868,2,-1,0,0,-2,0,-1,-1
1517145107826864,-1,0,-1,-1,0,-1,-2,1
1517145107826864,-1,-3,-1,1,-1,0,-1,1
1517145107827864,0,-2,-1,1,0,0,-1,-1
1517145107827864,-1,-3,-1,-1,-1,-1,0,-2
1517145107839927,1,-2,-1,0,-1,-1,-2,-2
1517145107839927,-2,0,-1,-2,-3,-2,-2,0
1517145107848879,-2,-3,-1,0,0,-1,-1,0
1517145107848879,1,-3,-3,-2,-2,-2,-1,0
1517145107863944,-2,-1,-3,-2,-1,-2,0,-2
1517145107863944,-1,-1,-1,-4,-3,-2,-1,-2
1517145107865903,0,-1,-1,-1,0,-2,0,-1
1517145107865903,-3,1,-2,-1,-2,-1,0,-2
1517145107886941,-2,-2,0,0,-1,0,-2,-2
1517145107886941,-1,-1,-2,0,-2,1,-2,-1
1517145107887909,-1,-1,1,0,-1,0,-1,0
1517145107887909,0,0,-3,0,0,-2,-1,-2
1517145107900973,-1,1,-1,-2,-1,0,-1,1
1517145107900973,0,-2,-1,0,-1,-1,1,0
1517145107907957,-3,-1,-2,-2,0,-2,-1,-1
1517145107907957,-2,1,0,1,-1,-1,-1,1
1517145107923935,-2,-1,-3,0,-1,-1,0,0
1517145107923935,0,-1,-1,-2,-1,-1,-1,-2
1517145107925936,2,2,-2,0,-1,-1,-1,-2
1517145107925936,-1,-2,0,-2,-1,-2,0,-2
1517145107946983,-2,-4,0,-2,-1,-2,-3,-1
1517145107946983,0,0,-1,0,0,-1,-1,0
1517145107947953,-1,-1,0,-2,-1,0,0,-1
1517145107947953,-1,0,-1,-4,-2,-2,-1,1
1517145107960968,0,0,1,0,-3,-1,-3,-1
1517145107960968,-1,0,-1,-1,-1,-3,1,-1
1517145107967999,0,-2,0,-2,-1,-1,1,-1
1517145107967999,-3,-2,0,2,-2,1,-2,0
1517145107984034,-3,0,-1,-3,-1,-1,0,-1
1517145107984034,-2,-1,-1,-2,-2,-2,-2,0
1517145107985979,-3,-1,-3,-2,-1,-1,-1,-2
1517145107985979,0,-2,-3,-2,-1,-1,0,0
1517145108006996,0,-1,-2,0,0,-1,-1,1
1517145108006996,-2,-3,-2,-1,0,-1,-2,0
1517145108007999,-1,-1,-1,-1,-1,-2,-2,-1
1517145108007999,0,-2,0,0,0,-1,-2,-3
1517145108029009,-1,-1,1,-1,-1,-1,0,-3
1517145108029009,-1,0,-1,-1,-1,0,0,-1
1517145108031012,-3,-1,-2,-1,-3,-1,-2,0
1517145108031012,-3,0,-2,-2,1,-1,-3,-2
1517145108044018,-1,-1,-2,-1,-1,0,1,-1
1517145108044018,-2,-1,1,0,0,-2,0,-3
1517145108045019,-1,-1,0,-1,-3,0,-2,-1
1517145108045019,2,-1,0,-1,-2,-1,-1,-2
1517145108066089,-1,-1,-1,0,-1,-2,-2,0
1517145108066089,-1,-2,-1,-3,-1,0,-1,-2
1517145108068037,-1,-3,-2,-1,-2,0,-2,-1
1517145108068037,-1,0,-2,-1,-1,-1,0,2
1517145108081098,1,0,-1,-1,-1,-2,-1,-1
1517145108081098,-2,-3,-2,0,-1,-1,0,1
1517145108095110,0,-1,1,-2,-2,-1,0,0
1517145108095110,-3,0,-1,-2,-3,-2,-1,-1
1517145108104117,-2,-3,-2,-3,-1,0,0,0
1517145108104117,-1,2,-2,-2,-1,-2,-3,-1
1517145108105097,1,-2,-1,-1,-1,-1,-1,0
1517145108105097,-1,-3,-2,-2,-1,0,0,-1
1517145108126077,-1,-1,1,-3,0,-1,0,0
1517145108126077,2,-2,-1,-1,0,-1,-1,-3
1517145108128095,1,-1,-1,-1,-1,0,0,-1
1517145108128095,-2,0,-1,-1,-2,-2,-1,1
1517145108141106,-1,0,-1,0,-2,1,-2,0
1517145108141106,-1,-1,0,0,-2,0,-1,-1
1517145108148097,0,-2,-1,-1,0,-2,-1,-1
1517145108148097,1,-1,-1,1,-2,1,0,-1
1517145108164158,0,-1,-2,1,-1,-1,-2,-1
1517145108164158,-2,-1,-2,-2,-1,-2,-1,0
1517145108165106,-2,0,-1,1,-2,-1,1,-1
1517145108165106,-2,-1,-2,-2,-1,-2,0,-2
1517145108186177,-2,-2,0,-1,0,-1,-1,-4
1517145108186177,0,-2,-1,0,-1,-1,-2,0
1517145108188137,-2,-1,-3,0,0,-2,-2,-1
1517145108188137,0,-4,-1,-1,-2,0,0,-2
1517145108201189,-1,-1,-1,-1,-1,-2,1,-2
1517145108201189,-2,-1,-3,0,-1,-2,0,-2
1517145108207190,-2,0,-2,-1,-1,-1,-1,-2
1517145108207190,-2,-1,-1,-1,-1,-2,-2,0
1517145108224149,2,0,-3,-1,0,0,-2,-1
1517145108224149,0,-1,-1,-2,-1,1,1,1
1517145108225148,-1,-2,-1,-2,-1,1,-1,1
1517145108225148,0,-1,-1,0,-1,-1,-2,-3
1517145108246178,0,-2,1,0,0,-1,-2,0
1517145108246178,1,-2,-2,0,-1,-1,-1,-1
1517145108248164,1,0,0,-3,-1,-1,0,-2
1517145108248164,-3,-1,-1,-2,0,-1,0,-2
1517145108261183,-2,0,-2,-1,-3,-3,0,-3
1517145108261183,0,-1,-2,0,-1,-2,0,-2
1517145108267234,-1,-2,-1,-1,-1,-2,0,-1
1517145108267234,-3,-1,0,0,-1,-1,-1,-3
1517145108284245,-2,0,-2,-3,-1,0,-1,-1
1517145108284245,-1,0,-1,-2,-2,1,-2,-1
1517145108285209,-2,-1,-1,0,-1,-1,-2,1
1517145108285209,0,0,-1,-1,-2,-1,-2,0
1517145108306264,-2,0,-1,2,0,0,-1,0
1517145108306264,-1,-1,0,-3,-1,-2,0,0
1517145108308205,-1,-2,0,-2,-2,-1,-1,0
1517145108308205,-2,-1,0,1,0,0,0,0
1517145108320272,-1,-2,-3,-2,-2,-1,1,1
1517145108320272,0,-2,-1,-3,-1,0,-2,-1
1517145108329220,-2,0,-1,3,-1,-3,-3,-2
1517145108329220,-1,-2,0,-3,0,-3,-2,-2
1517145108344292,-2,-1,0,-2,-2,0,0,-1
1517145108344292,-3,-1,-1,1,0,0,-1,-1
1517145108345231,1,-2,-2,-2,-1,-1,0,-1
1517145108345231,-2,0,-2,-2,-1,-1,0,1
1517145108374273,1,-1,-2,-1,0,-2,-2,-1
1517145108374273,-1,-1,0,0,-2,1,-1,-1
1517145108375253,-1,0,0,-2,0,0,0,-1
1517145108375253,0,-2,-1,-1,-1,-2,-2,0
1517145108380311,-1,1,-1,-1,-1,1,-2,0
1517145108380311,-1,-1,0,-1,-1,-3,0,-3
1517145108389281,-1,0,-1,0,-2,-1,-1,-1
1517145108389281,-1,0,0,-3,-2,0,1,1
1517145108404332,-1,-2,-1,0,-2,-3,-2,-2
1517145108404332,-1,-2,-2,1,-1,0,0,0
1517145108405279,-2,-3,0,-2,-1,0,-1,-2
1517145108405279,1,1,-2,-3,0,-1,-1,-2
1517145108426306,-1,-1,-1,2,-2,-1,-1,-1
1517145108426306,-2,-1,-3,-2,1,-1,-1,-1
1517145108428290,-1,-1,0,-2,0,0,-2,2
1517145108428290,0,-1,-2,0,0,1,-1,-2
1517145108440299,0,-3,-1,-3,-2,-1,-1,-3
1517145108440299,-1,-1,-1,1,0,-2,-1,-1
1517145108449305,1,-1,-3,-2,-1,-1,0,0
1517145108449305,-3,-1,-2,1,0,0,-1,-3
1517145108464316,-1,-2,0,-2,-1,0,-2,-2
1517145108464316,-2,-1,-1,-1,-2,0,-1,-1
1517145108466318,-1,-1,-2,-3,-1,-2,-2,0
1517145108466318,0,-2,-1,0,-1,-1,-1,-2
1517145108486348,0,-1,-2,-1,-1,-2,0,0
1517145108486348,-1,-1,-2,-1,-2,-1,-2,0
1517145108488351,-1,-2,-2,-3,-1,-2,0,-1
1517145108488351,-3,-3,-2,0,-2,-1,-1,0
1517145108500396,0,-1,-2,1,1,0,1,-1
1517145108500396,-1,-1,-2,-3,-1,-1,0,0
1517145108509358,-2,-1,-1,-1,-1,-1,-1,-1
1517145108509358,-1,0,-1,-2,0,0,-3,-1
1517145108524360,-1,-2,1,-3,-2,-1,-1,1
1517145108524360,1,-2,-1,1,0,-1,-3,-1
1517145108525359,-2,0,-2,1,0,-1,0,0
1517145108525359,-1,-3,1,-2,-2,-1,1,0
1517145108546429,-2,0,-3,-1,-1,-1,-1,-1
1517145108546429,-1,-1,0,-1,-1,-2,0,-3
1517145108548377,1,-2,-2,2,-1,-2,-1,-2
1517145108548377,1,-3,-3,-3,-2,0,0,-1
1517145108569412,0,0,-1,-2,-1,-1,0,1
1517145108569412,0,-2,-1,-3,0,0,-1,0
1517145108570391,-2,-1,0,-2,-1,0,-1,-2
1517145108570391,-1,1,-1,0,0,-1,-2,1
1517145108584401,-2,2,-1,-2,-1,-2,-2,-2
1517145108584401,0,0,0,1,-1,-2,-1,0
1517145108585405,1,-3,-2,-1,-1,-2,0,-1
1517145108585405,-1,-3,-2,-1,-1,-1,1,-2
1517145108606472,-2,-3,-2,-2,-2,0,-1,-2
1517145108606472,0,-2,-1,0,-1,-2,-1,-3
1517145108608427,-2,-1,-1,-1,-3,-1,-1,0
1517145108608427,-2,-2,-1,-1,-2,-1,-1,-1
1517145108620483,-2,-3,-1,1,-1,-1,-2,-2
1517145108620483,-2,-1,-1,-2,-1,-2,0,-1
1517145108636438,0,0,-1,0,0,-2,-2,-1
1517145108636438,-1,-2,-2,-3,-1,-2,-3,1
1517145108644445,-1,1,0,0,-1,-2,0,-2
1517145108644445,-1,-2,-3,-1,-1,0,-2,0
1517145108645446,-1,0,-1,-3,-1,0,-2,-1
1517145108645446,-1,1,-1,2,-1,-1,-3,-1
1517145108666515,-1,0,-1,-1,0,-2,-2,0
1517145108666515,-1,-1,-1,-1,-1,-1,-1,-1
1517145108668460,-2,-1,-2,-3,-2,-3,0,-1
1517145108668460,1,-5,-1,0,-1,0,-1,-4
1517145108680469,1,-2,-1,-1,-3,-2,-1,0
1517145108680469,-2,0,-3,0,-2,-2,-1,-3
1517145108689483,-1,-2,-1,0,-2,-1,0,-1
1517145108689483,-2,1,-1,0,-2,-2,-1,-2
1517145108703541,-1,-1,-3,-2,-1,0,-1,-1
1517145108703541,0,1,-1,-3,1,-1,-2,1
1517145108705503,0,0,-1,-1,-1,-1,-2,-1
1517145108705503,-2,-1,-2,-1,-1,0,-1,-1
1517145108726502,0,-1,0,-2,-2,-2,-1,-1
1517145108726502,-2,-2,0,-2,-2,0,0,1
1517145108728503,-4,-1,1,-2,0,0,-1,0
1517145108728503,-1,-1,-2,-3,0,-1,-1,1
1517145108740512,1,0,-1,0,1,-1,0,0
1517145108740512,1,0,-2,-1,-1,-1,0,-2
1517145108748574,-2,-2,-2,-1,-1,-2,-1,-1
1517145108748574,0,-1,1,0,0,-3,-1,-3
1517145108763586,-1,0,-2,-2,0,-2,-1,-2
1517145108763586,1,-3,0,0,0,-1,0,0
1517145108765546,-2,-1,-1,0,-2,0,-2,-1
1517145108765546,0,-1,-3,-2,-2,0,-2,-1
1517145108786599,-2,0,-2,0,-2,-2,-3,0
1517145108786599,-1,-3,-3,-1,-1,0,-1,-2
1517145108787546,0,-3,0,0,0,0,1,-1
1517145108787546,-1,0,-2,0,-1,0,1,0
1517145108808578,-3,-4,0,-2,-1,-1,-1,-1
1517145108808578,-3,-1,-2,-3,-1,-1,-1,-1
1517145108810562,0,-1,0,-1,-2,-2,-1,0
1517145108810562,0,1,-1,-2,-1,-1,-1,-1
1517145108823628,0,-1,-1,-1,-1,0,-1,0
1517145108823628,-1,0,-2,-1,-1,-1,-2,-2
1517145108825574,0,-2,-2,1,-1,0,-1,-1
1517145108825574,1,-4,0,1,-1,-1,-1,-3
1517145108846642,-1,-1,-1,1,-1,-2,-1,0
1517145108846642,-1,-1,0,-2,-2,-1,-1,-1
1517145108847626,-1,-1,-1,-2,-2,0,-2,0
1517145108847626,-2,-2,-1,-2,-1,-1,-1,1
1517145108868657,-1,-1,-1,-2,-1,-1,0,-3
1517145108868657,-1,1,-1,-1,-2,0,-2,0
1517145108870621,-2,-2,-1,-2,-1,-1,0,0
1517145108870621,0,-1,0,-2,-1,0,-1,1
1517145108883614,1,-2,-1,0,-2,-3,-4,-3
1517145108883614,-1,-1,0,0,0,0,-2,0
1517145108885615,0,-2,-1,0,-1,-2,-2,-2
1517145108885615,0,-2,-2,-3,-1,-2,1,-1
1517145108906684,-1,-1,-1,0,-2,0,1,0
1517145108906684,0,1,-3,0,-1,-2,-1,-1
1517145108907630,-2,-1,-2,0,-1,-3,-1,1
1517145108907630,-1,-3,0,2,-1,0,-2,-1
1517145108928700,1,2,0,-2,0,0,-1,-1
1517145108928700,-1,0,-1,-1,-1,0,-1,0
1517145108930649,-1,1,0,-3,1,0,-1,1
1517145108930649,0,-2,0,-2,-1,-1,-1,-1
1517145108951718,-4,-2,-3,-1,0,-1,-1,0
1517145108951718,0,-1,-1,-2,0,-1,-2,-1
1517145108952676,0,-1,-2,0,1,-1,-1,-2
1517145108952676,-1,0,-1,-1,-2,0,0,0
1517145108966729,-1,-2,-2,-2,0,0,-2,-2
1517145108966729,-2,-3,0,-1,-1,-2,-1,-2
1517145108967673,0,-1,-2,-1,-2,-2,-3,-2
1517145108967673,-4,-3,-2,-1,0,-1,-2,0
1517145108988744,-1,-2,1,0,-1,-1,0,-1
1517145108988744,-2,-2,-2,-3,-1,1,0,-2
1517145108990707,0,-1,-2,-3,-2,-1,0,-3
1517145108990707,-2,1,0,0,1,-1,-1,-1
1517145109003719,1,0,-1,1,-1,1,-2,-1
1517145109003719,0,-3,-1,0,-1,-2,-2,-1
1517145109009704,0,0,-1,-2,0,0,-2,-2
1517145109009704,-1,0,-2,-1,-1,1,-3,0
1517145109026716,-3,-2,-1,-2,-1,0,0,-2
1517145109026716,-1,-1,0,0,-2,-1,-1,-1
1517145109028734,0,-2,-2,-2,-2,-1,0,-2
1517145109028734,-2,-1,-2,1,-1,0,-1,-3
1517145109048786,-1,-1,-1,-1,-1,-1,-2,0
1517145109048786,0,2,-1,-1,-1,-3,-1,0
1517145109050749,-1,-2,-2,-1,1,-1,0,-3
1517145109050749,-1,0,0,-1,-1,-2,-1,1
1517145109063761,-1,-2,-1,1,-2,-1,0,-2
1517145109063761,-3,0,0,-1,0,0,0,-2
1517145109069800,0,-1,-1,-1,-4,0,0,-2
1517145109069800,0,1,-2,-2,-2,-1,-2,-5
1517145109086757,-1,-2,-1,0,-1,-1,0,0
1517145109086757,-1,-1,-1,-1,0,0,-1,0
1517145109087761,-1,0,-1,0,-1,0,-1,0
1517145109087761,0,0,0,-3,-1,-2,-1,-2
1517145109108777,1,-1,-2,0,0,0,-2,-1
1517145109108777,-2,-2,0,0,0,-2,0,-2
1517145109110775,-1,0,0,-1,1,-1,-1,0
1517145109110775,0,-1,-1,-1,-1,-1,0,-2
1517145109122839,-1,-1,-3,-1,-2,-1,-1,-2
1517145109122839,-2,-2,-1,0,-1,-1,-3,-1
1517145109138795,-3,-2,1,-1,0,-2,-2,0
1517145109138795,1,-2,-2,-2,-1,-1,-2,0
1517145109146860,-2,0,1,-3,-1,1,-1,-2
1517145109146860,-2,-1,-2,2,-1,0,-1,-2
1517145109147800,-2,0,-1,-2,-2,-2,1,-1
1517145109147800,-2,-1,0,-2,-1,0,0,-1
1517145109168851,-1,-2,0,-2,0,-2,-1,1
1517145109168851,0,-2,-1,-3,-2,0,-2,0
1517145109170836,-1,0,-2,2,-2,1,-3,0
1517145109170836,-1,-1,-1,-1,0,-2,-1,-1
1517145109191832,-1,0,-1,-2,0,-2,-1,-1
1517145109191832,0,-3,-1,-1,-1,0,0,-2
1517145109192833,0,-2,-1,0,-2,-2,0,0
1517145109192833,0,-1,-2,-1,-1,-2,0,0
1517145109206883,-3,-2,-1,-1,-2,-2,-1,1
1517145109206883,-1,-2,-1,-3,-1,0,-3,0
1517145109207861,-3,-2,0,-2,-2,0,-1,-1
1517145109207861,-1,0,-1,-1,-1,0,-1,-1
1517145109228913,1,-2,-1,0,0,1,-1,-2
1517145109228913,-1,-2,-2,-1,-2,0,1,1
1517145109230861,-2,-1,-1,-2,-1,-1,-1,-2
1517145109230861,-1,0,1,-1,-2,-2,-3,-1
1517145109242868,-2,-1,0,0,0,-2,-1,-2
1517145109242868,-2,1,-1,1,-2,-1,-1,-1
1517145109251874,-1,0,-3,-2,-1,-1,-1,-3
1517145109251874,-1,-3,-1,0,1,-1,-1,0
1517145109266940,2,0,-2,-2,0,-2,-1,0
1517145109266940,-1,-2,-1,-1,-1,0,0,1
1517145109272946,-1,-3,-1,-1,-2,-3,1,0
1517145109272946,1,-1,-3,0,-1,0,-1,-2
1517145109288904,-1,-1,-2,-4,0,-2,-2,0
1517145109288904,-1,0,-1,-3,-1,-1,-1,-2
1517145109290920,-1,-3,-1,0,-1,-2,-2,-1
1517145109290920,-2,-2,-2,-2,-1,-1,-1,-1
1517145109302958,1,-2,0,0,-1,-1,0,-1
1517145109302958,-1,-1,-1,-2,-1,-1,-1,-2
1517145109311920,-2,0,-1,0,0,0,0,1
1517145109311920,-1,0,-1,0,-3,-2,1,1
1517145109325927,-1,-1,-3,-3,0,1,0,-2
1517145109325927,0,-3,-3,0,0,-1,-2,-2
1517145109327929,1,0,0,-2,-1,-2,-2,0
1517145109327929,0,-1,-1,-1,-2,-1,-1,-3
1517145109348998,-1,0,-1,0,-2,-2,-3,-1
1517145109348998,-2,-1,0,-2,-1,-2,-1,0
1517145109350960,-1,-2,-3,-1,0,0,0,-1
1517145109350960,-2,-1,0,-1,-2,-1,-1,-2
1517145109362993,-1,-1,-3,0,-1,0,0,-1
1517145109362993,-1,0,-2,0,-1,0,-1,-1
1517145109371977,-1,-1,-2,0,1,0,-1,-1
1517145109371977,0,-2,0,-1,-3,0,-1,0
1517145109386976,-2,-1,0,1,-1,-2,0,-1
1517145109386976,-1,-3,-2,-1,0,-2,1,-2
1517145109387971,1,-1,-1,-1,0,0,-1,-1
1517145109387971,-1,1,-1,-2,0,-2,-1,-1
1517145109408986,-1,0,0,-1,-2,-1,-1,0
1517145109408986,1,-2,-2,-2,-1,-1,1,0
1517145109409987,1,-1,0,-1,-1,-1,-3,-2
1517145109409987,-2,-4,-2,-2,-1,-1,-1,-1
1517145109423016,-1,-1,-1,-1,-1,-1,0,0
1517145109423016,-2,-1,0,1,-1,-1,-1,-1
1517145109431056,-1,-1,-1,0,1,-2,0,-4
1517145109431056,1,-2,-2,0,2,-3,0,-1
1517145109446067,-1,0,-2,-1,0,0,-2,1
1517145109446067,-1,-1,0,-1,-1,0,0,0
1517145109448013,0,0,0,-1,-3,0,-1,-1
1517145109448013,0,-1,-2,0,-2,-1,-2,-2
1517145109469083,0,0,0,0,0,-1,-1,0
1517145109469083,-1,-2,-2,-2,-3,-1,-2,-1
1517145109471031,-1,-1,-2,-4,-2,1,-1,0
1517145109471031,-2,2,-1,2,1,0,0,-2
1517145109483094,-1,1,-2,-1,-1,-2,-1,-1
1517145109483094,-1,-2,0,0,-2,0,-2,0
1517145109491066,-1,-1,-1,-2,-1,-2,1,-1
1517145109491066,-1,-5,-1,-2,-1,0,-2,1
1517145109506110,0,0,1,-2,-2,-1,-1,-2
1517145109506110,1,1,-1,-2,1,-1,-2,-2
1517145109508056,-1,-1,-1,1,-1,-3,0,0
1517145109508056,-2,-1,-1,-3,-2,0,0,0
1517145109529126,-1,-1,-2,-1,-1,-1,-1,-2
1517145109529126,0,-2,-3,-1,-1,-1,-2,-2
1517145109530108,-2,-1,-1,0,-1,0,-3,-1
1517145109530108,-1,-1,0,-2,-2,0,-1,-2
1517145109542081,-1,-1,-1,1,0,-1,-1,-2
1517145109542081,-3,-1,-1,-2,0,-3,1,-2
1517145109551125,-1,-1,0,0,-1,0,-2,-2
1517145109551125,0,-1,-2,-1,-1,0,-1,-1
1517145109566155,-2,-4,0,0,-2,-3,-3,0
1517145109566155,-2,-2,-2,-2,-2,-3,-1,-1
1517145109568099,1,-1,-1,0,-1,0,-2,0
1517145109568099,-2,-2,1,-2,0,-3,1,-1
1517145109589169,2,-3,-1,0,-1,-1,0,0
1517145109589169,0,-1,-2,-1,0,0,-2,-3
1517145109590152,1,1,-1,-1,-2,-1,-1,-2
1517145109590152,-1,-1,-1,-1,-1,-1,-2,-1
1517145109602177,-1,0,-1,0,-1,-1,-1,0
1517145109602177,-1,-2,-1,-2,-2,-2,-1,0
1517145109611190,-1,-2,-1,-2,-2,-1,0,-1
1517145109611190,0,1,-3,-1,-1,0,-1,-2
1517145109626142,-2,-4,-4,-4,0,-1,1,-2
1517145109626142,1,1,-2,0,0,-1,1,-1
1517145109628143,-3,-3,0,-2,0,-2,-1,0
1517145109628143,-1,0,-1,-1,-1,-1,-2,-1
1517145109649157,-2,0,1,-1,-2,0,-1,-2
1517145109649157,-3,0,0,1,-1,0,-2,3
1517145109650159,-1,-1,-1,-1,-2,-1,-1,-1
1517145109650159,0,0,-4,-2,-1,-1,-1,-1
1517145109662220,0,1,-3,-5,-1,0,-1,-3
1517145109662220,-1,-2,0,-3,-1,0,-2,-2
1517145109679196,-2,-2,-1,0,-1,-2,-1,-1
1517145109679196,-2,0,1,2,0,0,-1,0
1517145109686238,-1,-1,-1,-2,-3,0,0,-1
1517145109686238,1,-2,0,-1,-1,-1,2,1
1517145109688201,-1,-3,-1,-1,-1,-1,-2,-1
1517145109688201,-1,-2,-2,-3,-1,-1,-1,-2
1517145109709203,-2,-2,-2,-1,-1,-2,-1,-1
1517145109709203,0,1,0,-1,0,-1,-2,-1
1517145109710200,0,-2,0,-4,0,0,0,-1
1517145109710200,-1,-2,0,-2,0,-2,-1,-1
1517145109731214,0,-1,-1,-3,0,-1,0,-1
1517145109731214,-2,-1,-1,-1,-2,-1,-3,-2
1517145109733216,-1,1,-2,2,0,-1,0,-1
1517145109733216,-1,-2,0,-1,-1,1,1,-2
1517145109747288,-1,-1,-1,1,-2,-3,-3,-1
1517145109747288,-3,-2,-2,-1,0,0,0,-4
1517145109748236,0,0,-1,-1,-1,-2,-1,-2
1517145109748236,-1,-2,0,-2,-1,-2,-1,0
1517145109769301,0,-1,-2,0,-1,-1,-1,1
1517145109769301,0,-2,-2,-1,-1,-3,-1,-1
1517145109770242,-1,-2,-2,-1,-2,-1,-2,-1
1517145109770242,-2,0,-3,0,-1,-1,0,-2
1517145109791260,0,-1,0,-2,-1,-1,-1,-2
1517145109791260,0,0,-1,-1,-1,0,0,0
1517145109793259,-2,-2,-1,-2,-1,-1,-1,0
1517145109793259,0,0,-1,-2,-1,-3,0,0
1517145109806322,-3,0,0,-1,-2,1,-1,-2
1517145109806322,0,-1,-4,0,1,1,1,1
1517145109808271,1,0,-2,-1,-4,0,0,-2
1517145109808271,-1,-4,-1,1,0,0,-2,-1
1517145109829343,-2,-1,-1,0,-2,-2,-2,-3
1517145109829343,-1,0,0,2,-1,-3,-2,-2
1517145109830285,-2,0,-1,0,1,0,-1,-1
1517145109830285,-1,0,-2,-3,-1,-1,-2,-1
1517145109852321,0,-3,-2,0,-1,-1,0,-1
1517145109852321,-1,-2,0,-3,-2,-1,-1,1
1517145109853301,0,0,-2,-1,-2,-4,-2,-2
1517145109853301,1,-1,-1,0,-1,-1,1,-1
1517145109865366,0,0,-2,0,-1,-1,-2,-1
1517145109865366,-3,0,-2,-1,-2,-1,0,-2
1517145109872372,0,0,0,0,-2,-1,0,0
1517145109872372,-2,-2,-2,0,-1,-2,-1,-2
1517145109889347,0,0,-1,-2,0,-1,0,2
1517145109889347,-1,-3,-1,-2,-2,-1,-2,-1
1517145109890327,-2,-2,-1,-2,-1,-2,-1,-2
1517145109890327,-1,-1,0,-2,-3,-2,-2,-2
1517145109911399,-2,-1,-2,-1,0,0,-1,0
1517145109911399,-1,-1,0,1,-1,-1,0,-2
1517145109913345,-2,-1,-1,-3,-2,-1,0,-1
1517145109913345,-1,-1,0,1,-1,-1,-1,-1
1517145109925355,-3,-2,0,-1,0,0,0,-2
1517145109925355,-1,1,-1,-2,0,-1,-1,1
1517145109932413,0,-3,-1,0,-1,-1,-2,1
1517145109932413,1,-1,-1,-3,-2,-1,-2,0
1517145109948386,-2,-1,-1,-3,-2,-1,-1,-2
1517145109948386,1,-2,-2,-1,-1,-1,0,-2
1517145109955376,0,-1,-1,0,-2,0,0,-2
1517145109955376,-1,-1,-1,0,-1,0,0,-1
1517145109971402,-1,-1,-1,-1,-2,0,-2,-1
1517145109971402,-1,-1,-4,-3,-2,-1,-1,0
1517145109973388,0,-1,-3,-2,0,0,-2,1
1517145109973388,-1,1,-1,-2,0,-1,-1,-3
1517145109985449,0,-1,0,1,0,-4,-1,-2
1517145109985449,-2,-2,-2,-2,-2,0,-1,-2
1517145110000465,-2,0,-1,-3,-1,-3,-3,-2
1517145110000465,-1,-2,-2,1,-1,1,0,0
1517145110008423,0,-2,-2,-1,-2,-1,-1,1
1517145110008423,-1,-1,0,1,-1,-1,-2,0
1517145110010414,0,-2,-1,0,-2,-1,-1,-2
1517145110010414,-3,0,-1,-2,-2,-1,-2,1
1517145110031432,-1,-2,0,-2,-1,-2,0,-2
1517145110031432,0,-2,-1,0,-1,0,-3,1
1517145110033445,-2,0,-1,-2,0,1,1,-2
1517145110033445,-2,0,-2,-2,-1,0,0,-1
1517145110045494,0,-3,-3,-3,-2,-2,1,0
1517145110045494,-1,0,-1,-3,0,-2,-1,-1
1517145110052458,1,0,0,0,-1,0,-1,-2
1517145110052458,-2,-3,-1,0,1,0,-2,-3
1517145110069471,-1,-1,-2,1,-1,0,-2,-2
1517145110069471,0,-2,-3,-3,-2,-1,-1,-1
1517145110071466,-2,-2,-1,1,-2,-2,-2,1
1517145110071466,2,-1,-2,-2,-1,-3,-1,-1
1517145110091474,-1,1,-1,-1,1,-2,-1,-1
1517145110091474,-2,-3,-1,-2,-2,0,0,-4
1517145110092472,1,-2,-1,-2,-1,0,-2,0
1517145110092472,-1,-1,-3,0,0,-1,1,-1
1517145110105541,0,0,-3,0,-1,0,1,0
1517145110105541,-2,-2,-1,0,-2,0,-2,-1
1517145110112541,-1,-2,-1,0,0,-1,0,-1
1517145110112541,0,-2,0,0,-1,0,-1,-1
1517145110129553,0,0,-1,-2,0,-1,-2,-2
1517145110129553,-3,0,1,0,2,-1,-2,1
1517145110130533,-1,-3,-2,-2,-3,-1,-2,0
1517145110130533,0,-1,-1,0,-2,-2,-2,0
1517145110151513,-3,-3,-2,-2,-2,0,1,0
1517145110151513,0,1,-3,-3,-1,-1,0,-2
1517145110152516,-1,-2,-1,0,0,0,-1,0
1517145110152516,-3,-1,-3,-3,-1,-3,0,-2
1517145110165579,-1,-1,1,2,-1,-1,-1,-1
1517145110165579,0,-1,0,1,0,-1,-3,1
1517145110172583,-1,0,-1,0,0,-1,-1,-1
1517145110172583,-2,-1,-1,-2,-2,1,-2,-1
1517145110188595,-1,1,-3,-2,-1,-1,1,-1
1517145110188595,0,-3,-1,-2,-3,-1,0,-2
1517145110190541,-1,-1,-1,0,-2,-2,-1,0
1517145110190541,-1,-1,0,0,-1,-1,-1,0
1517145110211612,-1,-1,-3,-1,-1,-1,-1,0
1517145110211612,-2,-2,-1,-1,0,-1,-2,0
1517145110212598,-2,-2,-1,-3,0,-1,-1,-2
1517145110212598,0,-2,-1,-2,0,-2,-2,-2
1517145110224584,-2,-1,0,-2,-2,-1,-2,-1
1517145110224584,-2,1,0,-1,0,-3,-1,-2
1517145110233628,-2,-1,-2,0,-1,-1,1,1
1517145110233628,-3,-2,-1,0,-1,-3,-1,0
1517145110248637,2,-2,-1,-2,0,-1,-1,-1
1517145110248637,-2,-1,1,2,0,-1,-2,-1
1517145110250600,0,-1,-1,1,0,-1,0,0
1517145110250600,-1,-1,-1,-2,0,0,-1,0
1517145110271654,-2,-2,0,-2,-1,-1,1,0
1517145110271654,-2,0,-1,-2,-1,0,0,1
1517145110272621,-1,-3,-2,-1,-2,0,-2,-4
1517145110272621,-1,-1,-1,0,-2,0,-1,-1
1517145110284661,1,-2,-1,-1,-1,-2,-1,-1
1517145110284661,0,-1,-3,-1,-2,1,0,-1
1517145110293614,-3,0,-1,-2,-2,0,-1,-2
1517145110293614,1,-1,1,-2,-1,-1,-2,-2
1517145110309626,-2,-2,0,0,-2,-1,-1,-1
1517145110309626,0,-2,-3,-3,-2,-1,-1,-2
1517145110314666,1,0,-1,-2,-1,-2,0,0
1517145110314666,-1,-3,-2,-2,-1,0,-2,0
1517145110331696,-1,0,1,3,0,-1,-3,-1
1517145110331696,-1,-3,1,-1,0,0,-1,-1
1517145110332652,-1,0,-1,-1,0,-1,-1,0
1517145110332652,-1,0,-1,-1,-1,-2,-1,-1
1517145110344704,1,-2,-2,-1,0,-1,0,-1
1517145110344704,0,0,-2,-1,-3,-1,-1,-2
1517145110353718,-2,-1,0,-3,-1,0,-2,-2
1517145110353718,0,2,0,-1,-2,-1,1,-1
1517145110368670,0,0,0,-1,-2,-1,1,-2
1517145110368670,-3,-2,-1,-1,0,-2,-1,-1
1517145110370668,0,-3,-2,0,0,-1,-1,-1
1517145110370668,-1,0,-1,0,-1,-1,-1,-1
1517145110391684,-3,-1,-1,-1,-2,0,-3,-1
1517145110391684,0,0,0,-1,0,0,-1,1
1517145110392683,-1,-1,0,-2,-2,-2,-1,-1
1517145110392683,-1,-2,-1,-1,-1,-2,1,-1
1517145110404695,-1,-2,0,-1,-1,-1,0,0
1517145110404695,0,-1,-1,0,1,-1,-1,0
1517145110419756,-2,-2,-1,-1,-1,-2,-1,1
1517145110419756,0,-1,-3,-2,-2,0,0,0
1517145110428762,-2,-1,-1,-2,-1,-2,-1,-2
1517145110428762,0,0,-3,-2,-1,1,-3,-2
1517145110430715,1,-1,0,0,0,0,1,-1
1517145110430715,0,-1,0,-1,-3,-3,-2,-1
1517145110451726,1,-1,-1,-2,-1,-1,-2,0
1517145110451726,-1,-2,-1,-1,-1,-1,0,0
1517145110452725,-2,-1,-1,1,-1,0,-1,-1
1517145110452725,-2,-3,-1,-1,-1,0,-2,0
1517145110464753,-1,0,-2,0,1,-1,-1,1
1517145110464753,-2,-2,-2,-2,-3,-1,-2,-1
1517145110473740,-1,-1,-1,-3,-1,-1,0,-2
1517145110473740,-1,-3,2,2,0,0,0,-2
1517145110488753,0,-3,-4,-3,-2,-2,-2,-2
1517145110488753,-1,-2,1,-2,-2,-2,0,-1
1517145110490771,-2,0,-2,-2,-3,-2,-2,1
1517145110490771,-2,-1,-1,-1,-1,-2,-2,-2
1517145110511767,-3,-1,-1,-1,-1,1,-2,-2
1517145110511767,-2,-1,-3,0,-2,-2,0,-3
1517145110512768,0,-1,0,0,0,0,0,-1
1517145110512768,-1,0,-1,-2,0,-1,-1,-1
1517145110525796,-2,-1,0,-1,-1,-1,0,0
1517145110525796,-1,-3,-3,-1,1,-2,-1,0
1517145110533783,-1,0,-1,1,-1,-1,-1,-1
1517145110533783,-1,-1,-2,3,-2,-1,-1,1
1517145110548796,-1,-1,-3,0,-1,0,-3,-3
1517145110548796,-1,2,-2,0,0,0,-1,-2
1517145110550814,-1,-4,-2,-1,0,0,0,-1
1517145110550814,-1,0,-1,-4,-2,-1,-1,-4
1517145110570809,-2,2,0,-1,-1,-1,0,-1
1517145110570809,2,-2,-2,-1,-1,-1,-3,0
1517145110578815,-1,-2,0,2,-3,0,-3,-2
1517145110578815,-1,1,0,-1,-1,0,-1,-1
1517145110584819,1,-1,-2,-1,-2,-1,0,1
1517145110584819,0,-2,-1,-2,-1,-2,0,-2
1517145110593827,-3,2,-2,-3,-1,-2,-1,0
1517145110593827,-1,0,-3,-1,-2,-1,-2,0
1517145110608837,-2,-3,-1,-3,-2,-2,-2,-2
1517145110608837,-2,-1,-2,-2,0,-1,-1,0
1517145110610857,0,-2,-2,-2,-1,-1,0,-1
1517145110610857,-2,-2,-3,-1,-1,0,-1,0
1517145110631857,-2,0,-1,-1,1,-2,-2,-3
1517145110631857,-1,-2,-1,1,-3,-1,-2,-1
1517145110632854,1,-1,-1,-5,0,-1,0,0
1517145110632854,0,-2,0,0,-1,-1,0,0
1517145110653868,-2,-2,-2,-1,-1,-1,-1,-1
1517145110653868,-4,-3,0,-1,-1,-2,-2,-1
1517145110659873,0,-1,-1,-2,-1,-1,0,0
1517145110659873,1,0,-4,-1,-1,0,-3,-1
1517145110667879,-2,-1,-1,-2,-2,-1,0,-1
1517145110667879,-1,-3,0,1,-1,-1,0,-1
1517145110682890,0,-2,-2,0,-2,-1,-3,-1
1517145110682890,-2,-1,0,-1,-1,-2,-1,-1
1517145110690894,-3,0,1,-2,-1,1,0,0
1517145110690894,-1,-1,-2,-2,-1,0,-1,1
1517145110692897,-2,-2,1,0,-1,-1,0,-3
1517145110692897,2,0,0,-1,1,-2,0,-2
1517145110713913,0,-2,-2,-3,-2,-2,-2,-1
1517145110713913,2,-1,1,1,-1,0,-1,1
1517145110715912,-1,-1,-3,-1,-1,-1,-3,1
1517145110715912,0,0,-1,-1,-1,-1,-2,0
1517145110728923,-2,-1,-3,-1,0,0,0,1
1517145110728923,-2,-3,0,-3,-1,-1,1,-2
1517145110730923,-2,-2,-1,-1,-2,-1,-2,0
1517145110730923,-2,-1,-2,-1,0,0,-1,-1
1517145110751939,-2,0,-1,1,-1,1,-1,0
1517145110751939,-4,1,-2,-1,0,-3,0,0
1517145110752940,0,-2,-2,-1,-1,-1,0,-2
1517145110752940,-1,-3,-3,-1,-1,0,-1,-1
1517145110774008,0,-1,0,0,-2,-3,0,0
1517145110774008,0,-1,-1,1,-1,-2,-1,0
1517145110774957,-1,0,-2,-1,0,-2,0,-2
1517145110774957,-3,-1,0,-3,-1,-3,-2,-3
1517145110787963,1,-1,-2,-1,0,0,-1,-3
1517145110787963,-1,-1,-2,0,0,-1,-2,-2
1517145110795023,0,1,-2,0,-1,-1,-1,0
1517145110795023,-2,-2,0,1,-1,-1,-1,0
1517145110810982,1,-1,-1,-2,-2,-1,0,0
1517145110810982,-3,-1,-2,-2,-2,-1,0,-1
1517145110812983,0,1,-2,0,-1,1,-1,0
1517145110812983,0,-2,-1,-3,-1,-2,-2,0
1517145110834050,1,-1,0,0,1,-1,-2,-2
1517145110834050,1,-3,-1,-3,-1,0,0,0
1517145110835034,-1,-1,-2,0,-1,-3,-2,-1
1517145110835034,-2,-2,-1,-1,-2,-1,1,-2
1517145110856067,-2,-3,-2,-1,-3,-1,-2,1
1517145110856067,0,0,0,-3,0,-1,-1,0
1517145110858015,-1,-3,0,-2,-1,0,-2,-2
1517145110858015,0,-3,1,-1,0,0,-1,-1
1517145110871076,-2,-2,-2,0,-1,-2,-2,-2
1517145110871076,-1,-1,-2,-2,-1,-2,-1,-2
1517145110873024,0,-2,0,0,-1,-1,0,0
1517145110873024,-2,1,-1,0,-1,-1,-1,-1
1517145110894091,-1,-3,0,0,0,0,0,-2
1517145110894091,-1,-1,-1,-1,-2,0,0,0
1517145110895074,0,-3,-2,-2,-2,-1,-1,-2
1517145110895074,-1,0,-1,2,1,-1,0,-4
1517145110908053,-1,-1,0,0,-2,-3,-1,0
1517145110908053,0,1,-2,-1,-2,-1,-2,-1
1517145110915113,-3,-1,-1,-1,0,-1,-1,-1
1517145110915113,1,-1,-2,-2,-1,-1,0,-1
1517145110931121,-1,0,0,-3,-1,-1,-2,-1
1517145110931121,-3,0,-1,-1,-1,-1,-1,-2
1517145110933078,0,-1,-1,-1,-2,-1,-1,0
1517145110933078,-1,-1,-3,-1,-2,-1,-1,-2
1517145110954094,-1,0,-1,-2,-1,0,-3,-1
1517145110954094,-1,-1,-3,-2,0,-2,0,-1
1517145110960098,-1,0,0,0,-1,-2,-2,-1
1517145110960098,-1,-2,-1,-2,-1,-1,-1,-2
1517145110968145,0,1,-1,1,-2,-1,-1,-2
1517145110968145,-1,-1,-1,-1,-1,-1,0,-1
1517145110975097,-2,0,-1,-2,0,-1,-1,0
1517145110975097,0,-4,-1,-2,-1,-1,0,-1
1517145110991128,-2,-2,-2,-1,0,-1,-2,1
1517145110991128,-2,-3,0,0,0,-1,0,-1
1517145110993110,-1,-1,-1,0,0,-2,0,-1
1517145110993110,-1,-2,0,-1,-3,-1,0,-1
1517145111014178,-1,1,0,-2,-1,-1,0,-3
1517145111014178,0,-1,0,0,0,0,0,-1
1517145111015144,-2,0,0,-2,0,-1,-1,-3
1517145111015144,-1,1,-2,0,-2,1,-2,1
1517145111028135,-1,-1,-3,-1,1,-1,0,-2
1517145111028135,-1,-1,-2,0,-1,-2,-2,0
1517145111035195,0,-2,-1,-3,0,1,0,-1
1517145111035195,-1,-1,-1,-3,-2,-1,0,-2
1517145111051206,2,-1,0,2,-1,-1,0,1
1517145111051206,1,-2,-1,0,0,-1,-3,-3
1517145111053169,-1,-3,-1,-3,0,-1,-2,0
1517145111053169,-1,0,0,-1,-1,-1,0,-1
1517145111074221,-2,-2,-1,-4,-2,-1,1,0
1517145111074221,-1,-1,-2,-1,-2,-2,-1,0
1517145111075168,0,0,-2,-2,-2,-1,-2,-2
1517145111075168,-2,-3,0,-2,-2,0,-1,1
1517145111088232,-1,-2,-1,1,-2,1,-2,-2
1517145111088232,-1,-1,-3,-2,-2,-1,-1,-2
1517145111095239,-2,-3,0,1,-2,-2,0,0
1517145111095239,-1,1,-2,1,-1,-1,-1,1
1517145111111249,-1,-1,-1,-1,0,1,0,-2
1517145111111249,-2,0,-1,-3,-2,-1,-3,1
1517145111113197,-2,-2,-1,-1,-1,-1,-2,2
1517145111113197,1,0,-1,-3,-1,-2,-1,-3
1517145111134266,-3,-1,-1,0,-1,-3,0,-1
1517145111134266,0,-3,-1,-2,-1,0,0,-2
1517145111135211,-1,1,-3,0,-2,-1,0,-5
1517145111135211,-1,-1,-1,-2,0,-1,-1,-1
1517145111147272,-1,-1,-1,-1,-2,0,-2,1
1517145111147272,0,-2,-1,-1,-1,-2,1,-1
1517145111156231,0,-2,2,-2,0,-1,-2,0
1517145111156231,-2,-3,-1,0,-2,-1,-1,-2
1517145111171292,-1,-2,-2,-2,-1,-1,0,-4
1517145111171292,0,-4,0,-1,0,0,-1,1
1517145111173255,1,-1,-2,-1,-2,1,1,-1
1517145111173255,-2,0,-1,-1,-1,-1,-3,-1
1517145111194316,0,1,0,0,-1,-1,-1,-2
1517145111194316,1,-1,-3,1,-2,-1,-1,1
1517145111195254,-2,0,-1,0,-2,-1,-1,-2
1517145111195254,0,-2,-1,-1,-1,-4,-1,-1
1517145111207317,1,-2,0,0,-1,-1,-1,0
1517145111207317,0,1,0,-1,1,0,-1,-1
1517145111216269,-1,-1,-3,-2,-1,0,-2,-1
1517145111216269,-1,-3,-1,-1,-1,0,0,-2
1517145111231297,-2,-3,-2,-3,-2,-2,-3,2
1517145111231297,-1,0,-1,-2,-1,-1,-1,-1
1517145111237319,0,-3,0,-1,-1,-2,-1,-1
1517145111237319,0,-1,-2,0,-1,-1,-1,-2
1517145111254329,-1,-1,0,1,-1,-1,-1,-3
1517145111254329,-1,-1,0,-2,-1,-1,-1,-1
1517145111255295,0,-3,-2,-2,-1,-1,-1,0
1517145111255295,-1,-1,-3,-3,-1,1,0,-3
1517145111267359,1,-3,-1,-3,-1,-1,1,1
1517145111267359,-3,-1,-1,-2,0,-1,-2,-3
1517145111276311,-3,0,0,-1,-1,-3,0,-2
1517145111276311,-1,-1,-2,-2,1,-3,-2,-3
1517145111291339,-3,-1,-1,-1,0,0,-2,-1
1517145111291339,2,-3,-2,1,0,-2,0,0
1517145111293322,-1,-2,-1,0,-1,-2,-1,-2
1517145111293322,-2,0,0,-1,0,0,-1,0
1517145111314355,-2,0,-4,-2,-1,-1,-2,0
1517145111314355,-2,-2,0,-3,-1,-2,-2,-1
1517145111315338,0,-2,-1,0,-1,-2,-1,-2
1517145111315338,-2,-1,-2,0,0,-2,0,0
1517145111327398,-2,1,-1,-3,-1,-1,0,-3
1517145111327398,-1,-1,-3,-2,-3,-2,0,-1
1517145111336362,-1,1,-1,1,-2,0,0,-1
1517145111336362,-2,-3,2,0,-2,-2,-1,-1
1517145111352367,1,-2,-1,0,-1,-1,0,-1
1517145111352367,-1,-1,-3,0,-2,-1,-1,-3
1517145111357429,0,0,-1,-1,0,0,-1,0
1517145111357429,-1,0,-1,0,0,0,-1,-1
1517145111374392,-1,-1,0,0,0,-2,-2,0
1517145111374392,-1,-2,0,-1,-1,0,-1,0
1517145111375382,-2,1,-1,-2,-2,-1,-2,-1
1517145111375382,0,0,-1,1,-1,-2,-2,0
1517145111387452,-2,-1,-2,-1,1,-2,0,-2
1517145111387452,-2,0,1,-1,-1,-1,0,-1
1517145111396402,1,-1,-2,0,-1,-2,-1,1
1517145111396402,-2,-2,-1,-3,-1,0,-1,-1
1517145111411431,1,-2,0,-2,-1,-2,1,-2
1517145111411431,0,-1,-2,0,-1,0,0,-3
1517145111413408,-2,-3,2,-1,0,0,1,-2
1517145111413408,-2,1,-2,-1,-1,-1,-2,-1
1517145111433428,0,-1,-2,-2,-1,-1,-2,-1
1517145111433428,-1,0,-1,0,-1,-1,-2,-3
1517145111435425,-1,-1,-2,-3,-1,-1,-1,-2
1517145111435425,-1,-2,-1,-4,-1,1,0,-1
1517145111447437,0,-1,0,-2,0,-1,-1,-2
1517145111447437,1,-1,-1,0,-2,-1,-1,1
1517145111462444,-2,0,-2,-2,-2,1,1,0
1517145111462444,0,-2,0,0,-1,-1,-2,1
1517145111471504,-3,0,-1,1,-3,-1,0,-1
1517145111471504,-1,-1,0,-1,-1,-1,-2,0
1517145111477455,0,-3,-1,-1,-1,-2,-1,0
1517145111477455,-1,-1,0,-1,-1,-2,1,0
1517145111493516,-1,-3,-1,0,0,-2,-3,0
1517145111493516,-1,-4,-1,-2,0,0,1,-1
1517145111495468,0,1,-1,-1,0,-1,-2,1
1517145111495468,0,-1,0,-2,-2,-1,-1,-2
1517145111507530,1,0,-1,-3,-1,1,-1,-2
1517145111507530,-3,-1,-1,0,-2,-2,0,-2
1517145111516482,-1,-2,-1,-3,-1,1,0,-1
1517145111516482,0,-1,0,0,0,0,-1,-1
1517145111531491,-2,-1,0,-2,-2,-2,-2,0
1517145111531491,1,-2,-2,0,-2,1,-2,0
1517145111532492,1,-1,-1,-1,-1,-1,0,-1
1517145111532492,1,-2,-1,-2,-1,-2,-2,0
1517145111553561,-3,-3,-2,0,0,0,0,-1
1517145111553561,1,0,0,-2,-1,0,0,-3
1517145111555510,-3,0,-1,0,-1,0,-2,-1
1517145111555510,0,-2,-2,0,-2,-1,-2,-3
1517145111567573,-2,0,-1,-2,-4,-1,-1,0
1517145111567573,0,-2,-1,-1,-1,-1,-1,0
1517145111576524,-1,-1,-2,-2,0,0,0,0
1517145111576524,-2,0,-1,-2,0,-3,0,-1
1517145111591536,0,0,0,0,-1,-1,0,1
1517145111591536,-2,-2,-2,-2,-1,0,-1,1
1517145111592536,-1,-2,0,-1,-1,-1,-1,-3
1517145111592536,0,-1,-2,-1,-1,-1,-2,1
1517145111613603,2,-2,0,-3,-1,0,-1,-2
1517145111613603,-3,0,-2,0,-2,1,0,-1
1517145111615551,-2,-2,-3,-2,-3,-2,-1,0
1517145111615551,0,-2,-1,-1,-1,-1,-1,-1
1517145111636569,-3,-2,-3,-1,1,0,-1,-1
1517145111636569,-1,-1,0,-2,-1,0,-1,-2
1517145111637570,-2,-1,-2,-1,-1,-2,-1,-2
1517145111637570,1,0,-1,0,-1,-2,-2,-3
1517145111651577,1,1,-2,0,-1,-3,-2,-2
1517145111651577,-1,-1,-3,0,-1,-1,-1,-1
1517145111652577,-1,-3,0,-1,-2,0,-1,-1
1517145111652577,-1,-1,-2,-2,-1,-1,-1,0
1517145111673602,-1,1,-2,2,0,0,1,-2
1517145111673602,-1,-1,-2,0,-1,-1,-1,0
1517145111675594,-1,-2,-2,0,0,-2,-1,0
1517145111675594,-2,-1,0,-3,-2,-1,0,-2
1517145111696663,0,-1,-1,-1,-1,0,-1,1
1517145111696663,-2,-1,1,-1,-1,-1,0,-2
1517145111702667,1,0,-2,0,-1,0,-2,0
1517145111702667,-1,-1,-1,-1,1,0,-3,-1
1517145111709618,-1,-1,0,-2,-3,-2,-2,-3
1517145111709618,-1,-1,-2,-1,-1,-2,-1,-2
1517145111724647,0,-2,-2,1,-1,0,-2,0
1517145111724647,-2,-2,-1,-1,-1,0,0,-1
1517145111732690,-1,-2,-1,-1,-2,0,-1,-1
1517145111732690,0,-2,-1,-3,-1,-1,-2,1
1517145111741641,-3,-2,-1,-1,-1,-2,0,1
1517145111741641,-1,0,-1,-1,-1,-1,0,-1
1517145111756705,-1,-2,-1,-1,-1,-1,0,-1
1517145111756705,2,1,0,0,-1,-1,-1,-1
1517145111757660,-1,1,-2,-1,-1,-2,-1,-2
1517145111757660,0,-2,-1,0,-2,-1,0,-1
1517145111770715,-2,-2,0,-1,-1,0,-1,-2
1517145111770715,-1,1,-2,-4,-2,-1,0,0
1517145111777720,-3,-2,-1,-1,-2,-2,0,-3
1517145111777720,-1,-1,-1,-1,0,-2,-1,0
1517145111793731,-1,0,-3,-1,-1,-2,0,-1
1517145111793731,0,0,-1,-1,1,-1,-1,-1
1517145111795682,-1,0,1,-3,0,-2,-1,0
1517145111795682,-1,-3,-1,-2,-2,-1,0,0
1517145111816750,-3,-2,0,-2,1,1,-3,1
1517145111816750,0,0,-1,-1,0,0,-1,-1
1517145111817694,-1,0,1,-1,-1,-1,0,-5
1517145111817694,0,-1,-1,1,-2,0,0,1
1517145111830758,1,1,-1,0,-3,-2,-2,-1
1517145111830758,-2,0,-1,-2,-3,-1,-1,1
1517145111837765,0,-1,0,-2,-1,-2,0,0
1517145111837765,-1,-1,-1,1,0,-1,0,0
1517145111853774,0,1,-3,-2,-1,-1,1,0
1517145111853774,0,0,0,0,-2,-1,-1,0
1517145111855738,0,-1,-3,-2,-1,-1,0,-1
1517145111855738,-3,2,-2,0,-2,0,-2,-2
1517145111876736,-2,0,-1,0,-2,-1,-1,-1
1517145111876736,-3,-3,-1,-1,-2,-1,-2,-1
1517145111877737,1,-1,-2,-2,-1,0,-2,-1
1517145111877737,-3,-2,-1,-2,-1,-2,-2,-2
1517145111890801,-2,-1,-2,-3,0,-2,0,-3
1517145111890801,-1,-1,-1,-1,-1,1,-1,-1
1517145111898759,0,0,0,-1,-1,1,-1,-1
1517145111898759,-1,0,0,-3,-2,-1,-1,-1
1517145111914788,0,0,0,-2,0,0,-1,-1
1517145111914788,-1,-2,-2,-2,0,-1,0,-3
1517145111915764,0,-1,0,1,-1,-1,-3,-1
1517145111915764,-1,0,-2,0,-4,-1,0,0
1517145111936799,0,-1,1,2,0,-2,-2,0
1517145111936799,-2,-1,0,-2,-2,-2,-2,1
1517145111937779,-2,-2,-2,-2,0,0,-1,-2
1517145111937779,-1,0,-2,-3,0,0,-2,-3
1517145111949842,-2,-2,-1,-2,-1,-2,-1,-3
1517145111949842,-1,-1,1,0,1,-2,1,-1
1517145111964852,1,-2,-1,0,-1,0,-1,-2
1517145111964852,-2,0,1,-3,1,-2,-2,0
1517145111973861,-1,-2,-1,-1,-2,-1,-1,1
1517145111973861,-3,-1,-3,-1,-1,-3,-3,1
1517145111979866,-2,-2,0,-2,0,-2,-1,1
1517145111979866,-2,-1,-2,-1,-2,0,0,-1
1517145111996879,-1,-2,0,-2,-1,-1,0,-3
1517145111996879,-1,-2,-1,1,0,-1,0,-3
1517145111997822,-1,-1,-1,-1,-2,0,-1,-1
1517145111997822,1,-2,-2,-1,-2,-2,1,-1
1517145112009831,1,-1,-1,-2,-2,-1,-1,-2
1517145112009831,-1,-2,0,1,-1,-1,-2,-3
1517145112018841,0,0,-2,-1,-1,0,0,0
1517145112018841,-1,-2,0,0,0,-1,-1,0
1517145112033882,-2,1,-1,-1,0,-2,0,-1
1517145112033882,0,0,-1,-2,-2,-2,-1,0
1517145112035866,-1,-3,-2,-1,-1,-1,-1,-2
1517145112035866,-1,-1,1,-1,0,-1,-3,-1
1517145112056866,-2,-3,-3,-2,-1,0,-2,0
1517145112056866,1,1,-2,-1,-1,-1,-1,0
1517145112057865,-1,0,-1,1,1,-3,-2,-1
1517145112057865,1,-1,-2,-1,-2,-1,0,-1
1517145112070930,-1,0,1,-2,-1,0,-1,-2
1517145112070930,-1,-1,-1,-1,-2,-1,0,-1
1517145112077942,-2,0,-2,-3,-3,-3,-2,-2
1517145112077942,-3,-1,-3,-1,0,-1,-1,-2
1517145112093931,-1,-3,-2,-1,0,-2,-2,0
1517145112093931,0,-3,-1,-1,-2,0,-1,-3
1517145112095895,-1,-2,-1,-2,-2,0,0,0
1517145112095895,0,-2,-2,0,-1,-1,-2,0
1517145112116908,-1,-1,-1,0,-2,-1,0,0
1517145112116908,-1,1,-2,-2,-1,1,0,-1
1517145112117910,-2,-1,-2,-3,-1,-1,-1,0
1517145112117910,-2,0,1,-2,-1,-1,0,0
1517145112129970,0,-3,-1,-2,-1,-1,-1,-2
1517145112129970,1,-2,1,-2,-2,-3,0,-1
1517145112138923,0,0,-2,-1,-3,-1,-1,-1
1517145112138923,-1,0,-2,-1,-1,0,-1,0
1517145112153988,-1,0,0,0,0,-1,-2,0
1517145112153988,-2,0,-1,-2,-1,-3,0,-2
1517145112155953,-2,-3,-1,-1,-1,-1,0,-1
1517145112155953,0,-1,-2,-2,0,-1,-1,0
1517145112175950,-1,-1,-1,-3,-3,-1,0,-1
1517145112175950,-1,-3,-3,-1,0,-1,-2,0
1517145112177953,-3,-1,0,0,0,0,-2,-1
1517145112177953,-1,-2,-2,0,-2,0,-2,-2
1517145112190012,-1,-1,-1,0,-1,-1,-2,-1
1517145112190012,-1,-2,-1,-1,-2,0,-1,2
1517145112198966,-1,-3,-1,-3,-1,-1,0,-1
1517145112198966,-1,-1,-1,0,0,-1,-2,-2
1517145112214029,-2,-2,-1,0,-2,1,0,-2
1517145112214029,-1,-1,-2,-3,-1,-1,-1,-1
1517145112215976,0,-2,0,2,0,-2,1,0
1517145112215976,-1,0,0,0,-2,-2,1,1
1517145112244050,-1,1,-1,-2,-1,-3,1,-1
1517145112244050,-1,-1,0,-1,-1,-1,-3,0
1517145112245034,-2,0,-1,-3,-1,-2,-3,-1
1517145112245034,0,-1,-2,-1,-2,-1,-1,-4
1517145112250057,-1,0,-2,0,0,0,-1,0
1517145112250057,1,-1,0,0,0,0,-1,-2
1517145112259007,0,1,-2,-1,-3,-2,0,0
1517145112259007,-1,-3,-1,1,1,-2,0,-1
1517145112274072,-1,-1,-1,-2,-2,-1,1,1
1517145112274072,1,-1,-3,-3,1,-1,-1,-2
1517145112275021,-2,-2,-1,-2,-1,0,-1,-2
1517145112275021,-2,-2,-1,-1,-3,-1,0,0
1517145112297037,1,-1,-1,-1,-2,-1,0,0
1517145112297037,-1,-2,-2,0,-2,-2,0,-1
1517145112298037,0,-1,-2,-1,-2,-1,1,-1
1517145112298037,-1,-1,-1,-1,-1,0,-2,-1
1517145112310045,0,-3,-1,0,0,0,-2,-1
1517145112310045,0,-3,-1,-1,-3,0,1,1
1517145112319052,0,-3,-1,-1,-1,-1,0,-3
1517145112319052,0,-1,-1,-1,0,-1,-2,-1
1517145112334061,-1,1,1,0,0,-2,-1,-2
1517145112334061,0,-1,0,0,0,-1,-1,-1
1517145112335061,0,-3,1,1,1,1,0,-1
1517145112335061,2,-2,-2,-2,-2,-1,0,-1
1517145112356134,1,-2,-2,-3,-2,0,0,-1
1517145112356134,-3,1,-2,1,0,-2,-1,-1
1517145112358080,0,1,-1,0,-1,0,-1,0
1517145112358080,-2,0,-1,-2,-2,0,-3,-2
1517145112370144,-1,1,-1,-2,0,0,-1,0
1517145112370144,-2,-2,0,-1,-2,-1,-1,-1
1517145112379093,-1,1,-1,-1,-2,0,-2,-1
1517145112379093,0,-3,-1,-1,-1,-1,0,-2
1517145112394141,-3,-2,-2,-3,-2,-1,0,-1
1517145112394141,-3,-1,0,0,-1,-1,-1,-1
1517145112395111,0,-1,-1,-1,-1,0,-1,0
1517145112395111,-2,0,-1,-2,1,-1,0,-1
1517145112416179,0,0,-2,-1,-1,-2,-2,-1
1517145112416179,-2,0,-1,-1,-1,-2,-2,-1
1517145112418121,-1,-3,-1,-2,0,-2,-2,-1
1517145112418121,-1,-2,-1,-1,-2,0,-1,-2
1517145112430186,-1,-4,-1,1,-2,0,-1,0
1517145112430186,0,2,-1,-1,0,0,0,0
1517145112439152,-1,0,-1,-2,-2,-2,-1,-1
1517145112439152,-1,-1,0,-1,-1,0,-1,1
1517145112454147,-1,-3,0,1,-1,-2,-1,-2
1517145112454147,1,0,-1,-1,-2,0,-1,-1
1517145112455147,-1,-2,-2,-1,-1,-1,-1,0
1517145112455147,-2,1,-1,-2,-1,-1,-1,-2
1517145112476202,-2,-2,-3,-2,-2,-1,-1,1
1517145112476202,0,-1,-1,-1,1,-1,-2,-1
1517145112478167,-1,-2,-1,-2,-1,-2,0,1
1517145112478167,-2,-3,-1,-2,-2,-1,0,1
1517145112490192,-1,-3,-2,-2,-1,-1,-1,-2
1517145112490192,-1,-1,-2,0,-3,-2,-1,-4
1517145112499178,-2,1,-1,-2,-1,0,-1,-2
1517145112499178,2,0,-2,-1,0,-1,-1,-1
1517145112521215,0,1,0,-1,-1,0,-1,-1
1517145112521215,-1,-1,-2,-1,-1,-1,1,0
1517145112523195,-3,-2,-1,-1,-2,-2,0,0
1517145112523195,0,-2,1,1,-1,0,0,0
1517145112536204,-2,0,-1,2,0,1,-1,-3
1517145112536204,-2,2,0,-1,-1,-1,-2,0
1517145112538206,-2,0,1,-2,0,-1,-1,-3
1517145112538206,-1,0,-1,-1,-2,-1,-2,-1
1517145112559241,0,-2,-2,-3,-1,-1,-2,-2
1517145112559241,1,-3,-1,-2,-3,0,-2,-3
1517145112560222,-1,-2,-1,0,0,0,-3,0
1517145112560222,-1,-3,-3,0,-2,0,0,-1
1517145112574274,-2,-2,-2,0,0,-1,1,0
1517145112574274,0,-2,0,-1,-1,-1,1,0
1517145112575241,1,0,-2,-1,-1,-1,0,-2
1517145112575241,-2,-3,-1,-1,0,-2,-2,-1
1517145112596302,-3,-1,0,1,-1,-1,0,-1
1517145112596302,-2,-3,-1,-2,-1,-2,-2,-1
1517145112598272,-1,-1,-1,0,-3,0,-2,0
1517145112598272,-1,-1,-1,-2,-2,-1,-1,0
1517145112618316,0,0,-2,-1,-2,-2,-2,-1
1517145112618316,-2,-1,-3,-1,0,-1,0,1
1517145112626268,0,-4,-1,2,0,-1,-1,-2
1517145112626268,-3,1,-2,-3,-3,-1,0,0
1517145112634273,-3,-2,-1,-1,0,-1,-1,0
1517145112634273,-1,-1,-1,-1,0,0,0,-1
1517145112635274,-1,-2,-2,-3,-2,0,-1,-1
1517145112635274,2,-1,0,-1,0,-1,0,-1
1517145112656344,-2,0,-2,-2,-2,-1,0,0
1517145112656344,0,-1,-1,2,0,-2,-1,-2
1517145112658290,-1,0,-2,0,-2,-2,0,-1
1517145112658290,-2,-1,0,-2,-1,-1,-2,-1
1517145112679325,-1,-1,-1,-2,-2,-1,-1,0
1517145112679325,-2,-1,-3,0,-1,-1,1,-1
1517145112680306,-1,-1,0,-1,-1,-1,-2,0
1517145112680306,2,-2,-1,0,0,-1,0,-1
1517145112693316,0,1,0,0,0,0,-2,0
1517145112693316,0,0,0,-2,-2,-1,-2,-1
1517145112700376,-1,-2,-2,-1,-1,-1,0,-2
1517145112700376,-3,-2,-1,-2,-3,0,-1,-1
1517145112716386,-1,-2,-1,-3,-3,-1,0,-3
1517145112716386,-1,-3,-1,0,0,1,-1,-1
1517145112718370,-2,-1,0,-2,-2,-2,0,0
1517145112718370,0,0,-3,0,0,0,-1,0
1517145112739350,0,-1,-1,-1,0,-1,-3,-3
1517145112739350,-2,-1,0,-1,-2,-4,0,0
1517145112745352,-1,-4,0,-1,0,-1,-2,-3
1517145112745352,0,-1,-1,-2,-1,-2,1,0
1517145112753358,0,2,-1,0,-3,-1,-1,0
1517145112753358,1,0,-1,-1,-3,-1,-1,-2
1517145112760364,-1,-2,-3,-2,-2,0,-2,-1
1517145112760364,-2,0,-1,-1,-2,-1,-2,-1
1517145112776374,0,-3,-1,-3,-2,-1,-1,-2
1517145112776374,0,-1,0,-2,0,0,-1,0
1517145112778417,-1,0,-1,-1,-1,-1,0,0
1517145112778417,0,-1,-3,0,-1,-1,-1,-1
1517145112798445,-2,1,-2,0,-1,0,-1,0
1517145112798445,0,-2,-1,-3,-1,-1,-1,1
1517145112800392,-1,-1,-1,-2,-1,-1,-1,-2
1517145112800392,0,-1,0,2,-1,-2,-1,-3
1517145112813455,0,0,0,-1,-1,0,0,-1
1517145112813455,-2,0,-2,-3,-2,0,-2,-1
1517145112820465,-2,-1,-3,-1,0,-1,-1,-1
1517145112820465,-3,-2,0,-2,0,-1,1,-4
1517145112836470,-1,0,0,-1,-1,-3,0,-1
1517145112836470,-2,-1,-1,-1,0,0,-1,-1
1517145112838449,1,1,0,0,0,-2,-1,-1
1517145112838449,-2,0,-1,-3,-1,-1,-3,0
1517145112858438,0,-1,-2,0,-2,0,-1,-2
1517145112858438,0,-1,-1,-1,0,0,1,-3
1517145112860435,-2,-1,1,-1,-2,0,-1,-2
1517145112860435,1,-1,-1,-2,-1,-3,-4,1
1517145112873498,-2,-1,-1,-1,0,-1,-2,0
1517145112873498,-1,-2,-2,-1,-2,-1,-2,0
1517145112880488,-1,0,-3,-1,-1,-1,1,-2
1517145112880488,-1,0,0,1,-1,0,0,-3
1517145112903520,-2,-2,-1,-2,0,-1,-2,-2
1517145112903520,0,0,-1,-1,0,-3,0,1
1517145112905468,-2,-1,0,-1,-1,-1,-1,0
1517145112905468,-1,-2,-3,-3,-1,0,0,0
1517145112918530,0,0,1,-1,0,0,-3,0
1517145112918530,-3,-3,-2,0,-1,-1,-2,-1
1517145112920479,1,-2,-1,-1,-1,-1,-1,-1
1517145112920479,0,-1,-1,-2,-1,-1,-1,-1
1517145112933540,-3,-1,-1,-1,0,-1,0,-1
1517145112933540,-2,1,-1,-2,0,-1,-3,-1
1517145112940503,0,0,-2,0,-2,-1,0,1
1517145112940503,-1,-2,-1,0,-1,-1,0,-1
1517145112956502,0,-3,-2,-3,-2,0,-1,-1
1517145112956502,-1,-4,0,-2,-1,0,-1,-3
1517145112957503,-2,-1,-2,0,-1,-1,-1,-1
1517145112957503,-3,0,-3,-1,-1,-2,-2,-2
1517145112978572,0,0,0,-3,-1,-2,-1,0
1517145112978572,0,-1,0,2,-1,-1,0,0
1517145112980519,-1,-1,-1,-1,-1,-1,-2,-2
1517145112980519,1,1,0,1,-1,-2,0,-2
1517145112993561,-2,-2,-1,0,1,-1,0,1
1517145112993561,0,-2,-2,-1,-1,0,0,-3
1517145113000534,1,-1,-1,-1,-1,-1,0,1
1517145113000534,-2,-3,-1,-1,-1,-1,-2,-3
1517145113016564,0,-1,-1,-3,0,0,0,0
1517145113016564,1,-1,-1,-1,-1,0,0,0
1517145113022603,0,-1,0,-2,-1,0,0,0
1517145113022603,-1,-2,-1,-1,-2,-1,-1,0
1517145113038616,-1,-2,-1,-1,-1,-1,-1,-4
1517145113038616,-3,-3,-2,-1,-2,-2,-2,0
1517145113040578,2,-1,-2,-1,-1,0,0,-1
1517145113040578,-1,-1,-1,-2,-1,-1,0,1
1517145113052623,-1,-3,-2,0,-1,-2,-2,0
1517145113052623,-1,-1,0,-3,-2,0,-2,-1
1517145113061577,-2,-2,-1,1,0,-1,-1,-1
1517145113061577,-3,-2,-2,-2,1,-1,-1,-1
1517145113076588,-1,-1,1,-3,-1,-1,-1,0
1517145113076588,0,0,0,0,-2,-1,-1,-1
1517145113078589,-1,-2,-1,-3,0,0,-2,-1
1517145113078589,-1,-1,-2,-2,1,-1,0,-1
1517145113098658,0,0,-1,-1,-1,-1,-2,-2
1517145113098658,1,-1,-3,-1,-2,-1,-2,-1
1517145113100621,-3,-1,-2,-1,-2,-3,-1,-3
1517145113100621,-1,-2,0,-1,-2,-1,-2,1
1517145113121675,-1,0,-1,0,-2,-2,0,-3
1517145113121675,-2,0,0,1,-2,-2,-1,-2
1517145113121675,-1,-1,-2,-3,-2,0,-1,2
1517145113121675,-1,0,0,1,-1,0,-2,-1
1517145113135685,0,-1,-2,-1,0,-1,-1,0
1517145113135685,-4,-1,-2,0,0,-1,0,0
1517145113136631,-1,-3,-1,0,0,-1,-1,-1
1517145113136631,-1,1,0,-3,-2,0,-1,0
1517145113158646,1,0,0,-2,0,-1,-3,-2
1517145113158646,-1,0,-3,-2,-1,-1,0,1
1517145113158646,0,-3,-1,-1,-1,-1,-1,0
1517145113158646,-1,0,0,-1,0,-2,-2,-2
1517145113181681,-3,-1,-2,2,-2,-1,-1,1
1517145113181681,-1,-1,0,0,0,-1,0,-2
1517145113182663,0,-1,-2,-2,-2,-1,-1,-2
1517145113182663,1,-2,0,1,-1,0,-1,-2
1517145113195726,-2,-1,-3,-2,-1,-1,-2,-1
1517145113195726,1,0,0,-1,-1,-1,-2,-1
1517145113196676,-2,0,-2,-1,1,2,1,1
1517145113196676,-1,-1,0,3,-2,-1,1,-2
1517145113218688,-2,-2,-2,-8,-1,-1,0,-1
1517145113218688,-1,2,-1,-2,1,-1,-1,-1
1517145113218688,-2,0,-2,3,0,-4,-1,-2
1517145113218688,-1,-1,-3,-3,-2,0,-1,-1
1517145113241706,-1,2,0,0,-2,-2,-1,-2
1517145113241706,-1,-2,-2,-2,-2,-2,-1,-1
1517145113241706,0,-1,0,2,-2,-2,-3,-1
1517145113241706,-3,-4,-1,1,2,-1,0,0
1517145113255768,-1,-2,0,-4,0,0,0,2
1517145113255768,0,-2,-1,-4,-2,-1,-2,-2
1517145113256732,-1,1,-1,0,-2,0,-1,-1
1517145113256732,-2,0,-2,-4,-2,-1,0,-1
1517145113277782,-1,-1,0,2,-2,0,-1,-2
1517145113277782,-1,-1,-1,2,-1,-1,-1,1
1517145113285790,-3,-3,0,-2,-1,-2,-2,-2
1517145113285790,1,-1,1,-2,-1,0,-1,0
1517145113301802,-1,-3,-1,4,0,-2,-1,-1
1517145113301802,-2,-3,0,-7,-1,-2,0,-2
1517145113301802,-1,1,0,-1,2,-1,1,0
1517145113301802,-1,0,-3,-5,-2,0,-1,-3
1517145113315813,-1,-4,0,-2,-2,-1,0,-1
1517145113315813,0,-2,0,0,-3,-2,-1,0
1517145113316778,-2,-2,0,2,0,0,-2,0
1517145113316778,-1,-1,-1,3,1,-2,-1,0
1517145113337829,-1,0,-1,-4,-3,-2,0,-1
1517145113337829,1,0,-3,-3,-1,-1,-2,0
1517145113338774,-1,-1,0,-2,-4,-1,-1,-1
1517145113338774,1,-3,-6,-12,-1,-3,0,-1
1517145113360846,-2,-2,1,6,0,-1,-1,-1
1517145113360846,-1,-2,-1,-3,-1,0,-1,-3
1517145113361789,-2,1,-2,-5,-2,-1,-2,-1
1517145113361789,-1,0,2,10,0,0,-2,0
1517145113375809,1,-2,-4,3,-1,-2,-1,-1
1517145113375809,0,-2,3,4,0,-1,0,-1
1517145113376801,1,3,3,-7,0,1,0,0
1517145113376801,-2,-2,-6,-12,-2,0,-1,-1
1517145113397821,2,-2,1,-4,-2,-1,-2,0
1517145113397821,-2,-2,-5,9,1,0,-2,-1
1517145113398820,-1,-3,-4,-6,1,0,-1,-2
1517145113398820,0,-1,2,-6,-2,-2,1,-1
1517145113420831,0,1,-1,-6,-6,0,-1,-1
1517145113420831,0,4,0,-6,1,-2,-1,0
1517145113421851,-2,-3,0,15,-6,-2,-1,-1
1517145113421851,-1,-2,-8,-6,1,-1,1,-1
1517145113435898,-1,-1,4,1,0,0,-1,-2
1517145113435898,-2,1,10,2,0,0,1,-2
1517145113436855,0,-4,-29,-5,-1,-3,-2,-2
1517145113436855,-1,1,7,2,1,-2,-1,-1
1517145113457878,1,0,16,28,2,-1,-1,-2
1517145113457878,-3,-3,-5,-36,-8,-1,-1,0
1517145113458859,-2,1,14,10,-5,-1,-1,-2
1517145113458859,-1,-1,-7,4,1,4,-1,-2
1517145113480930,-1,-2,-4,-22,-9,-4,-1,0
1517145113480930,-1,2,7,11,7,1,1,-2
1517145113481894,0,0,-9,-4,2,-3,0,0
1517145113481894,1,-2,5,-3,-9,-3,-1,0
1517145113495940,-3,-3,0,2,4,1,-2,0
1517145113495940,0,3,19,16,0,2,-1,-1
1517145113496891,2,-1,-5,-2,-1,0,-1,-1
1517145113496891,-1,-2,25,9,0,0,1,1
1517145113517936,-3,-10,-75,-11,4,-1,-1,-3
1517145113517936,-3,-5,-8,-32,-12,-5,-3,-1
1517145113518901,-3,1,8,28,1,-1,-3,-1
1517145113518901,-1,0,15,-6,1,-1,-3,-1
1517145113540918,0,7,19,6,-5,2,3,0
1517145113540918,-1,-7,-6,10,1,0,2,-1
1517145113541918,3,0,4,-26,-3,0,0,0
1517145113541918,-1,2,9,14,6,0,0,0
1517145113555984,-4,-5,-38,-19,-2,-4,-2,-2
1517145113555984,0,1,6,10,-2,-3,-3,-3
1517145113555984,0,3,22,11,4,0,0,-1
1517145113555984,-1,-5,-39,-19,-5,-2,-2,-2
1517145113577998,-3,-3,26,-4,-1,-2,-3,-2
1517145113577998,1,7,12,-13,-4,2,2,-2
1517145113578944,0,2,20,19,2,0,0,-2
1517145113578944,-4,-11,-21,2,0,-3,-4,-2
1517145113600960,-1,-3,-7,3,-2,-1,-5,-3
1517145113600960,-1,-1,-1,-7,3,1,-2,3
1517145113601960,0,0,5,-15,-1,-1,-1,-3
1517145113601960,1,7,15,1,-4,-2,0,-1
1517145113615970,2,3,13,7,1,-1,-2,-1
1517145113615970,-2,-3,-9,11,-6,-5,0,-2
1517145113615970,-1,-1,7,-10,4,0,-1,0
1517145113615970,0,0,-21,12,3,0,-1,1
1517145113638039,0,-2,7,-7,-3,1,-1,1
1517145113638039,-2,-5,1,4,-3,-3,-3,0
1517145113638986,-3,-4,-23,-11,-5,-4,-1,-1
1517145113638986,0,4,16,6,-1,-1,-1,0
1517145113661053,0,-4,-15,-6,-1,-1,0,-3
1517145113661053,0,0,4,0,1,0,0,-2
1517145113662006,-2,-3,-1,-5,-4,-1,-1,-1
1517145113662006,-2,1,5,-7,-2,0,-1,-1
1517145113676013,4,8,32,8,5,0,3,1
1517145113676013,0,-4,-10,8,3,0,-1,-3
1517145113676013,-4,-11,-70,-12,-5,-2,-2,-3
1517145113676013,-2,1,-6,-8,-5,-2,-3,-3
1517145113698081,-2,3,21,-1,-1,0,0,1
1517145113698081,-1,0,13,4,1,0,-2,-1
1517145113699029,-1,-9,-18,-3,0,0,-1,0
1517145113699029,-2,-5,2,-7,-4,-4,-2,0
1517145113721054,-1,-2,-46,-1,-2,-3,-3,-2
1517145113721054,0,4,23,1,0,0,0,0
1517145113721054,1,4,33,2,2,3,0,-2
1517145113721054,-2,-1,-12,0,-2,0,0,-2
1517145113736073,-1,-4,5,1,0,-3,-2,1
1517145113736073,-1,-3,-31,-1,-2,0,0,0
1517145113736073,-1,2,2,0,0,0,-1,-2
1517145113736073,0,0,9,3,1,-2,-1,-1
1517145113758076,-2,3,-10,-8,-5,1,0,-1
1517145113758076,-3,-12,-46,-11,-4,-2,-3,-1
1517145113759072,0,1,48,0,-1,-1,-1,1
1517145113759072,-1,-4,0,-2,-4,-1,0,-1
1517145113781105,0,-4,22,5,1,1,-1,-2
1517145113781105,0,0,-21,-1,-1,-3,-3,1
1517145113781105,-2,0,2,0,-1,-3,-2,-2
1517145113781105,3,6,3,5,2,0,-2,0
1517145113796129,-4,-6,-1,-2,1,1,1,-2
1517145113796129,0,-1,10,-1,0,1,1,-2
1517145113796129,-2,-2,14,-1,-3,0,-2,-2
1517145113796129,1,2,11,0,-1,-1,2,-1
1517145113818112,0,-1,-3,-5,-2,-3,1,1
1517145113818112,-1,5,24,-2,-1,0,-2,-1
1517145113819115,-2,-1,-3,6,2,-3,-1,-2
1517145113819115,-2,-8,-3,-9,-7,-3,-3,-4
1517145113841131,-3,-5,-34,-9,-4,-1,-1,-3
1517145113841131,-1,2,11,2,1,-2,0,-1
1517145113841131,2,6,-6,7,2,-1,1,1
1517145113841131,-5,-16,-24,-6,0,-3,-4,-3
1517145113856151,-1,3,10,-3,-6,-4,0,-2
1517145113856151,-2,-4,-14,-3,-2,-1,-2,-2
1517145113856151,0,3,35,-11,0,-2,-2,2
1517145113856151,-1,2,1,-6,2,2,-2,-2
1517145113878209,-1,3,9,16,1,0,0,0
1517145113878209,-2,-12,-72,-1,1,-2,-1,1
1517145113879157,-4,-2,12,-4,-6,-5,-3,-4
1517145113879157,1,9,28,-1,-1,-1,-1,0
1517145113901173,-1,1,5,6,1,-2,-2,0
1517145113901173,-1,7,-9,3,-1,2,-1,-2
1517145113901173,-1,-5,-27,-4,0,0,3,-1
1517145113901173,-1,-3,6,-2,-1,-1,-1,0
1517145113916183,3,2,4,5,2,1,2,-1
1517145113916183,-2,-3,38,-11,-2,-3,-3,-2
1517145113916183,-2,0,20,3,-5,-3,-3,1
1517145113916183,1,-1,-16,9,4,2,1,-1
1517145113938255,-5,-1,4,-2,1,-2,-3,-3
1517145113938255,3,4,-50,8,-2,-3,-2,-1
1517145113939233,-5,-13,-30,-26,-10,-2,-3,-2
1517145113939233,0,13,48,13,1,2,0,0
1517145113961216,3,4,-10,8,1,-1,-1,2
1517145113961216,-10,-27,36,-28,-10,-9,-4,-4
1517145113961216,7,11,12,15,10,6,-2,3
1517145113961216,-7,-20,-47,-17,-12,-8,-5,-3
1517145113975224,3,7,39,-3,1,2,0,-1
1517145113975224,1,6,33,-1,1,-1,0,-1
1517145113976226,1,1,-19,4,1,-1,0,-2
1517145113976226,0,-2,-11,0,-1,0,-1,0
1517145113998296,-5,-9,-5,-3,-5,-3,-1,-2
1517145113998296,1,5,23,7,1,1,2,-1
1517145113999276,-3,-3,-20,-5,-2,-2,-1,-2
1517145113999276,1,1,-16,-4,3,1,0,-1
1517145114020310,-5,-6,7,-8,-2,-1,-3,-3
1517145114020310,4,1,-41,11,4,1,-3,1
1517145114021258,-2,-2,-19,-7,-5,-1,-1,0
1517145114021258,0,8,12,0,-2,-1,1,1
1517145114035322,2,3,43,4,3,0,0,-1
1517145114035322,-2,-1,-78,-10,0,1,0,0
1517145114036268,4,2,61,14,3,0,-1,-1
1517145114036268,-8,-18,-46,-22,-13,-6,-4,-2
1517145114058302,1,4,13,1,0,-2,-1,2
1517145114058302,-1,3,39,9,3,-1,0,2
1517145114059284,0,1,-40,-6,3,3,-1,-2
1517145114059284,4,13,33,13,7,2,2,1
1517145114080353,-1,-9,-5,-6,-5,-2,0,-2
1517145114080353,-3,5,-10,-11,-7,-5,-2,-2
1517145114081299,-2,-10,16,12,-1,1,-3,-1
1517145114081299,2,6,5,3,2,-3,-1,1
1517145114095365,1,4,-29,-2,-2,0,0,-1
1517145114095365,-3,-8,22,3,0,3,-2,0
1517145114103371,-4,-2,-39,-8,-4,-4,-1,-1
1517145114103371,0,1,51,2,-1,0,1,-2
1517145114118380,-4,-8,-35,-5,-4,-3,-2,-1
1517145114118380,0,0,7,0,-2,-2,-1,-2
1517145114119339,0,5,26,1,-2,-3,0,-2
1517145114119339,-3,-10,-103,-6,0,-3,-3,-1
1517145114140395,0,0,46,1,5,0,3,1
1517145114140395,5,8,17,-5,-4,3,1,1
1517145114141343,-2,-14,-2,-20,-4,-1,0,-1
1517145114141343,-8,16,-3,12,-6,-4,-6,-4
1517145114164375,3,-9,-54,6,5,2,-1,1
1517145114164375,-6,-13,-31,14,2,-1,-2,-1
1517145114164375,8,23,80,11,13,8,2,0
1517145114164375,-6,-10,34,-63,-27,-12,-7,-4
1517145114186429,0,18,27,-2,-2,-1,-4,0
1517145114186429,11,14,25,11,4,3,1,1
1517145114187392,-1,0,-17,18,0,-1,1,-6
1517145114187392,3,-1,21,19,10,3,0,9
1517145114200439,-2,-7,-12,-11,-3,-2,-1,1
1517145114200439,0,0,5,0,-2,-2,-2,-6
1517145114201385,-4,-13,-32,-8,-2,-2,-2,-3
1517145114201385,-1,6,-9,4,4,3,1,7
1517145114215455,-10,-29,-11,-11,-8,-3,-4,-12
1517145114215455,2,-3,-22,3,0,-1,3,20
1517145114223455,-4,-2,20,-3,-2,-1,-2,-6
1517145114223455,5,-4,-30,-4,-1,-1,1,0
1517145114238465,-2,-12,21,11,-2,-2,-1,0
1517145114238465,-1,8,-11,-9,-2,-3,-2,-7
1517145114239435,-2,-3,-18,-5,-1,-2,0,-1
1517145114239435,-3,-7,19,10,3,2,1,0
1517145114262481,2,8,-13,-4,-1,1,-4,1
1517145114262481,0,-7,3,-8,-4,-1,0,-7
1517145114263434,0,-5,-14,0,-6,-2,-5,-1
1517145114263434,1,3,4,7,4,-1,-1,-4
1517145114275440,3,3,-25,1,2,-1,1,-1
1517145114275440,-7,-15,38,-3,-3,-2,-2,-3
1517145114283497,-3,6,-5,-7,-4,-3,-2,2
1517145114283497,0,-1,8,-6,0,0,2,-1
1517145114298489,-2,2,10,-3,-2,-3,-2,-4
1517145114298489,-3,0,-19,-3,2,-2,-2,1
1517145114298489,-1,2,-10,-2,-2,0,2,1
1517145114298489,4,13,26,14,3,1,0,-4
1517145114320524,-4,-5,-26,-22,-5,-5,-2,4
1517145114320524,1,-10,2,4,1,-2,0,-3
1517145114321471,0,-10,-11,-1,-2,-2,0,2
1517145114321471,1,6,11,3,1,0,-1,-1
1517145114335499,-1,4,-16,-2,-1,1,-1,-4
1517145114335499,-6,-2,49,9,0,-1,-4,-2
1517145114343489,0,-14,-103,-18,-3,-3,-1,6
1517145114343489,-2,-13,36,5,-1,-1,0,4
1517145114358500,-9,-5,44,-4,-9,-7,-4,-8
1517145114358500,3,12,10,-3,2,2,0,-2
1517145114358500,-1,-4,-12,-3,0,-1,0,0
1517145114358500,-2,0,-35,1,-1,1,-2,-4
1517145114380572,1,-4,12,1,0,-1,-1,1
1517145114380572,-4,-6,17,6,-2,-1,-1,0
1517145114381516,-3,1,-3,1,-3,-4,-2,-3
1517145114381516,-1,0,14,-3,1,1,1,-1
1517145114395523,1,-1,-24,1,-2,-1,-1,2
1517145114395523,0,-1,-12,-6,-4,1,3,4
1517145114403584,0,7,40,5,1,0,-3,-6
1517145114403584,-3,-21,-70,-13,-4,-3,0,-5
1517145114418599,1,7,53,7,-1,1,0,1
1517145114418599,-2,-1,-27,-5,-1,-2,-1,7
1517145114418599,0,5,-1,3,0,-1,-1,-3
1517145114418599,0,-6,16,5,1,-2,-2,-2
1517145114440610,1,2,-21,-4,2,1,-1,1
1517145114440610,-4,1,8,-3,-4,-2,-1,-4
1517145114441558,1,3,40,-2,-4,-1,-2,-1
1517145114441558,0,0,4,9,4,-1,-1,-2
1517145114463572,-2,-10,-85,-6,-4,-2,-3,0
1517145114463572,0,1,20,-2,-1,-4,0,-6
1517145114464572,-1,2,2,5,2,0,2,2
1517145114464572,-1,6,14,0,-1,2,-4,-2
1517145114478582,0,4,19,4,1,0,0,-1
1517145114478582,-1,-7,-9,-3,-3,1,1,3
1517145114478582,-1,-1,-10,-5,-1,1,-3,-5
1517145114478582,-4,-10,-6,-1,-1,-1,0,-7
1517145114500652,4,4,23,7,1,-1,-1,7
1517145114500652,-1,8,-7,-4,-2,1,-4,-7
1517145114501600,-4,-2,28,0,-2,-3,0,2
1517145114501600,-5,-6,-21,-7,-4,-1,-1,-1
1517145114524632,3,5,-16,6,2,1,1,-1
1517145114524632,3,7,12,5,1,-2,-5,-12
1517145114524632,-1,8,28,-4,-2,-3,-1,0
1517145114524632,-1,0,-12,-5,-4,-3,-1,-1
1517145114538635,-2,-4,5,-2,-1,0,-1,-7
1517145114538635,0,-3,-69,-7,1,1,2,9
1517145114538635,2,-8,6,4,-1,1,-3,-3
1517145114538635,0,-1,-16,-5,-4,-3,-3,-2
1517145114560696,2,2,26,1,-2,-1,1,1
1517145114560696,-7,-9,-6,-16,-1,0,-2,-12
1517145114561644,2,0,-6,5,-3,-1,1,3
1517145114561644,6,9,-14,5,-2,-1,0,3
1517145114583673,-3,-3,18,-1,-1,-1,-3,-3
1517145114583673,0,4,-16,6,-1,0,-1,1
1517145114584658,-7,-35,-15,-24,-8,-5,0,2
1517145114584658,-1,-4,8,10,0,-1,-3,-7
1517145114597721,2,14,9,-13,-2,-2,1,1
1517145114597721,-2,-2,6,-3,-2,-2,-1,0
1517145114598672,-1,14,-9,4,0,-1,-3,-1
1517145114598672,11,31,12,-3,1,2,2,1
1517145114620708,-5,-18,-27,-2,-1,-2,-4,8
1517145114620708,-2,-2,14,3,0,0,0,-1
1517145114621685,3,2,-7,0,-2,-1,-1,-1
1517145114621685,-12,-5,4,-1,1,0,1,1
1517145114643703,-2,0,4,4,3,3,-1,-3
1517145114643703,3,3,8,-1,-1,-2,-2,-1
1517145114644699,-9,-27,-8,-8,0,-2,-2,-4
1517145114644699,2,-3,-6,-13,-7,-2,-4,0
1517145114658711,-2,0,-16,0,-4,-3,1,-3
1517145114658711,-2,-21,2,3,-3,-2,-1,0
1517145114658711,-1,-2,-70,-13,-3,0,-1,-2
1517145114658711,-2,-9,51,19,4,-3,-4,3
1517145114680726,-3,-2,-3,-9,-6,-3,0,1
1517145114680726,3,11,0,6,-2,1,2,4
1517145114681726,-3,9,-10,-17,-2,-1,-2,-6
1517145114681726,0,-5,-16,-7,-1,-2,2,1
1517145114703795,-2,-9,-2,4,0,-1,-3,-4
1517145114703795,-6,-10,2,-6,-2,-2,-1,-3
1517145114704758,-3,-4,2,20,2,1,-2,-1
1517145114704758,-3,-5,7,-10,1,0,1,3
1517145114717807,0,-3,8,1,-2,-1,-2,-6
1517145114717807,-1,-5,-8,-5,0,-1,0,-1
1517145114718752,1,4,11,22,5,0,1,2
1517145114718752,0,-3,-3,-7,-6,-1,-1,0
1517145114740821,1,5,-7,-4,1,0,-2,-1
1517145114740821,0,0,2,-11,-4,-2,-3,-1
1517145114741803,-4,9,12,12,-3,-1,0,0
1517145114741803,1,-5,-13,-5,3,1,-1,-3
1517145114763837,3,8,-1,-8,-3,0,-2,-1
1517145114763837,0,2,-43,0,4,1,-1,0
1517145114764787,4,11,37,5,-3,-3,-2,-1
1517145114764787,-8,-30,-8,0,-5,-4,-3,-4
1517145114777848,-1,7,14,4,0,0,0,-3
1517145114777848,0,0,2,-5,1,-1,-1,-1
1517145114778797,2,3,-20,-1,1,1,-1,2
1517145114778797,2,9,9,-5,-1,0,-1,0
1517145114800838,-3,3,-6,0,1,-1,1,0
1517145114800838,2,-10,9,8,-2,-1,-1,-1
1517145114801846,0,3,3,-9,-4,-3,-2,-1
1517145114801846,-1,-6,-1,1,0,1,0,-3
1517145114823881,-6,2,-10,-3,-2,-1,0,1
1517145114823881,0,3,22,13,1,-2,-2,-1
1517145114824828,-5,-13,9,-24,-3,-1,-3,0
1517145114824828,0,15,-5,3,2,0,-1,-3
1517145114846850,-1,-9,-11,2,1,-2,-1,0
1517145114846850,-1,0,2,1,-1,-1,-1,-2
1517145114846850,0,2,-12,6,0,0,1,1
1517145114846850,-3,2,11,-3,-5,-3,-3,-1
1517145114860904,-1,-4,-7,-7,-1,0,-1,-1
1517145114860904,-2,4,7,0,-2,1,-2,-3
1517145114861854,-2,-8,10,1,0,0,-2,-2
1517145114861854,0,3,4,1,-1,0,-1,-1
1517145114883868,2,-7,-24,-9,-3,-3,-3,-2
1517145114883868,-2,2,-5,-1,0,-2,0,-1
1517145114884871,-2,-1,18,4,-1,-2,1,-1
1517145114884871,4,11,9,5,4,1,0,3
1517145114897932,-4,-12,-3,-9,-5,-3,-3,0
1517145114897932,-5,2,-6,-7,1,-2,-1,-2
1517145114898880,0,-5,-18,-22,-7,-1,-2,-2
1517145114898880,-2,7,-6,34,8,1,-1,-1
1517145114920895,3,0,12,11,-1,-2,0,1
1517145114920895,-2,-5,15,-6,-1,0,-1,-3
1517145114921915,4,-4,-12,2,4,0,0,1
1517145114921915,-7,-17,11,0,0,2,2,-2
1517145114943963,-1,16,-1,-5,-1,0,-1,-2
1517145114943963,2,3,-14,-7,-5,-1,-3,0
1517145114944923,1,-3,35,3,-2,-2,-2,-2
1517145114944923,-3,-9,-55,-15,-7,-4,-4,-1
1517145114957941,0,-5,14,17,2,0,0,1
1517145114957941,-1,-4,-5,-10,2,-1,1,-1
1517145114958922,0,7,2,0,1,-1,-2,-2
1517145114958922,-2,-1,2,-2,-1,0,-1,-2
1517145114980992,-1,3,7,-1,-1,-2,-1,0
1517145114980992,-1,-15,-1,-1,-5,-3,-2,3
1517145114981958,-4,7,-20,1,1,2,0,-1
1517145114981958,2,-1,10,-10,-3,-3,0,2
1517145115004009,-2,2,0,-6,-1,0,-1,-2
1517145115004009,-4,5,0,2,-2,-1,0,-1
1517145115004964,-1,-6,-2,4,-1,-1,1,0
1517145115004964,1,-7,3,3,-4,-2,-1,-3
1517145115018017,-4,0,11,-6,0,-1,-1,-3
1517145115018017,1,4,-16,3,3,1,-1,-1
1517145115025969,-4,-6,13,-8,-8,-3,-3,-1
1517145115025969,0,3,-14,-4,-2,-1,0,-2
1517145115041000,2,-5,6,11,4,0,0,0
1517145115041000,2,-5,-14,-5,-6,-2,-2,-1
1517145115048040,-13,-7,-23,-4,1,-2,-1,-4
1517145115048040,1,-1,-3,1,0,1,0,0
1517145115064051,0,-2,14,3,0,-2,-1,-2
1517145115064051,-1,7,20,2,0,1,-1,-4
1517145115065031,4,0,-19,-2,0,0,-1,1
1517145115065031,-3,-2,10,-4,-4,-3,-3,-1
1517145115078007,-1,3,-16,2,-2,-1,0,-2
1517145115078007,-4,-20,16,-2,-3,-1,-2,-3
1517145115086016,0,1,-12,0,-1,-1,0,-1
1517145115086016,2,6,4,-6,-3,0,-1,-1
1517145115101022,-1,-2,-6,-2,-2,-2,-1,0
1517145115101022,-2,-2,-4,6,0,-1,-1,1
1517145115101022,3,2,3,-4,-2,-2,0,-3
1517145115101022,0,3,-5,-12,-1,0,0,1
1517145115124093,0,-1,19,1,-2,-1,-1,-2
1517145115124093,0,1,-25,1,-1,-2,-1,-1
1517145115125042,-3,-6,2,-4,3,-2,0,-2
1517145115125042,-5,-2,-11,3,-5,-5,-4,-2
1517145115137105,-4,-4,4,-5,-4,-1,-2,-3
1517145115137105,6,5,3,4,1,2,-1,1
1517145115146115,-1,-10,4,0,1,-1,0,-3
1517145115146115,-4,-8,-13,-2,-2,-1,-1,-1
1517145115161126,1,0,2,-5,3,-2,-3,-7
1517145115161126,-1,0,-17,-1,-3,-3,-2,0
1517145115161126,-1,1,8,5,-1,1,0,1
1517145115161126,5,4,7,5,-1,0,-1,0
1517145115184138,-7,-12,-24,-9,0,0,-2,0
1517145115184138,1,-4,20,-5,0,0,0,-1
1517145115185101,-1,16,0,-4,-3,-2,-2,3
1517145115185101,5,8,16,1,3,-2,-4,-7
1517145115197147,0,-4,-15,0,-3,-1,-2,0
1517145115197147,-2,10,5,0,1,0,0,1
1517145115206130,0,-1,6,1,-3,-1,0,0
1517145115206130,-7,-11,-5,-2,1,0,1,0
1517145115221129,8,9,-25,2,2,2,1,2
1517145115221129,-6,-9,24,-6,-6,-4,-2,-3
1517145115221129,1,1,8,1,-1,1,-1,1
1517145115221129,-4,-5,3,-7,-2,-1,0,-2
1517145115244179,-1,-3,-5,-8,-1,0,1,-2
1517145115244179,-1,0,-16,4,4,-1,-1,-2
1517145115245124,0,2,9,4,-2,0,-1,-2
1517145115245124,-1,0,-1,-2,0,0,1,3
1517145115257187,-3,1,8,2,-3,-1,-4,-7
1517145115257187,0,3,12,-3,-2,-2,-1,-2
1517145115266160,2,-3,-35,-5,-1,-1,-2,-1
1517145115266160,-2,-2,12,-2,0,-1,0,-3
1517145115280204,2,-2,26,7,4,1,2,5
1517145115280204,-14,-12,-8,-7,-6,-5,-2,-18
1517145115281154,3,-3,8,3,0,-2,-2,3
1517145115281154,1,4,-12,1,1,1,-1,3
1517145115304187,-2,4,24,0,0,0,0,2
1517145115304187,3,0,12,-10,-1,0,1,2
1517145115304187,-8,-9,-29,7,-3,-2,-1,-4
1517145115304187,1,3,2,0,-2,-1,-3,-3
1517145115317231,-4,-2,-8,-15,-6,-2,-2,0
1517145115317231,1,2,-22,4,1,1,3,2
1517145115325182,0,0,5,-5,-1,-1,-2,-3
1517145115325182,1,0,10,-3,-2,-2,-2,1
1517145115342194,-3,-1,3,2,-2,-3,0,-2
1517145115342194,0,-3,-4,0,-2,-2,-1,7
1517145115343195,2,4,20,3,1,-1,-2,-3
1517145115343195,-1,-3,-28,0,2,-2,1,-2
1517145115364266,-1,-7,-27,-2,0,1,-1,-1
1517145115364266,2,2,25,-4,-1,0,-2,2
1517145115364266,-5,-4,22,6,-1,-1,-2,0
1517145115364266,-3,-1,-8,-9,-1,1,-1,-1
1517145115386281,-1,0,-10,-2,-3,-2,1,0
1517145115386281,1,-1,-25,0,-1,0,1,4
1517145115387230,3,13,1,-15,-2,-2,-3,-7
1517145115387230,-5,-26,-2,-2,-1,-2,-3,1
1517145115401290,-1,0,-6,3,0,-2,1,-1
1517145115401290,0,2,-2,2,1,-1,-1,-1
1517145115402261,1,-3,-3,-3,-2,-1,0,1
1517145115402261,-2,7,3,5,-1,-1,-1,2
1517145115424278,-3,-11,-12,-11,-1,1,0,0
1517145115424278,-1,-2,15,4,-2,-2,-2,-4
1517145115424278,1,-1,-22,-2,1,-1,0,-1
1517145115424278,1,-2,-5,-1,-1,-2,0,-2
1517145115446324,3,13,-8,4,0,-3,-2,1
1517145115446324,-8,-15,30,-1,-1,-1,-2,-4
1517145115447285,3,8,-9,5,1,-1,0,0
1517145115447285,-2,0,0,-4,-2,-2,-1,0
1517145115460281,-1,-1,16,-4,-6,-4,-2,0
1517145115460281,2,3,-10,0,1,1,-1,4
1517145115461279,-1,1,9,6,2,1,0,-1
1517145115461279,-1,1,-2,3,-1,1,0,-1
1517145115484315,-2,0,12,-1,1,1,-1,0
1517145115484315,-2,1,-19,-1,-2,-2,1,1
1517145115484315,-1,-1,7,0,-2,-1,-1,-1
1517145115484315,1,4,3,-4,-3,-3,0,-2
1517145115506363,-4,-6,-12,-2,0,1,1,-2
1517145115506363,0,-1,-22,-3,-1,-1,-3,9
1517145115507311,-4,-9,32,-4,-4,-2,-2,-5
1517145115507311,-1,2,-12,-5,-1,-2,-1,-2
1517145115520320,1,-2,0,5,0,0,-1,-1
1517145115520320,-2,0,6,-1,-1,-2,-2,-5
1517145115521321,-2,-3,-38,-4,-1,-2,3,2
1517145115521321,0,8,18,3,-2,-1,-1,2
1517145115544340,-1,-7,14,2,-1,0,0,-1
1517145115544340,0,4,-25,-5,-3,-2,0,-4
1517145115544340,-4,-2,4,-4,-1,-1,-3,0
1517145115544340,0,5,-5,1,0,0,-1,-4
1517145115574359,1,11,-3,0,0,-4,-2,1
1517145115574359,1,1,16,0,-1,1,1,-1
1517145115574359,1,-5,-3,1,0,0,1,0
1517145115574359,-2,-5,-13,2,1,0,0,-2
1517145115580418,-4,-2,9,-2,-3,-2,-2,2
1517145115580418,-1,-7,8,1,-2,-2,-3,-2
1517145115581364,-1,1,8,-3,-1,-3,-1,0
1517145115581364,-2,-4,-33,-6,-2,0,-2,-2
1517145115604384,-2,-8,4,0,-1,0,-2,0
1517145115604384,-2,2,-8,5,0,-3,0,-3
1517145115604384,-3,-3,29,-6,-1,0,1,0
1517145115604384,-1,5,35,1,-4,-1,-1,3
1517145115626398,-3,-11,-43,1,-1,-1,0,-1
1517145115626398,-1,3,-26,2,0,1,-2,-2
1517145115627398,-1,-8,4,-2,-3,-1,-4,-3
1517145115627398,1,-2,1,1,-1,-1,0,2
1517145115640414,2,4,0,5,-1,0,-5,-4
1517145115640414,-1,-1,2,-6,-2,0,0,0
1517145115641407,1,4,-9,1,-1,-2,-1,1
1517145115641407,-4,-3,10,-9,-2,-2,-3,-6
1517145115663422,-1,-8,-31,-1,0,-3,0,5
1517145115663422,-1,4,-5,3,1,1,0,2
1517145115664422,-2,-4,7,-4,-3,-1,-3,-15
1517145115664422,1,3,-1,2,0,-2,-1,-1
1517145115685492,0,-2,9,-2,-1,2,0,1
1517145115685492,-1,-13,6,-8,-2,-2,-1,-3
1517145115693499,2,2,-26,2,-2,0,1,1
1517145115693499,-2,-2,-11,3,0,0,-1,-3
1517145115700503,0,-3,32,-2,-1,-1,0,-4
1517145115700503,0,6,3,-6,-1,-3,-1,2
1517145115701449,0,2,-8,4,-2,1,0,3
1517145115701449,0,-9,11,-10,-1,0,0,1
1517145115723480,-2,4,-15,-3,0,-2,-2,0
1517145115723480,-4,-4,-3,-2,-3,1,0,-3
1517145115725467,0,2,-2,2,0,-1,-3,-1
1517145115725467,-2,-4,17,-3,-4,-3,-2,0
1517145115746496,-2,0,-4,8,0,-1,1,-1
1517145115746496,3,0,19,1,2,-1,-2,-2
1517145115747482,-4,-8,1,-7,1,-2,-1,2
1517145115747482,-1,4,-9,1,-4,-1,-2,0
1517145115760490,0,0,-11,-5,-2,-1,-2,-3
1517145115760490,-3,-6,26,7,-1,-1,-1,1
1517145115769505,-2,-3,-36,-1,-1,1,-1,2
1517145115769505,-2,-4,4,-1,1,0,0,1
1517145115783563,1,3,15,2,0,0,-1,-5
1517145115783563,1,2,2,-4,-1,1,-1,-1
1517145115785525,1,1,30,2,-1,-2,0,2
1517145115785525,-5,-7,-44,-4,-3,-3,-3,-13
1517145115806579,-2,2,18,0,-3,2,-1,2
1517145115806579,-1,0,-2,1,-2,-1,-2,1
1517145115807566,-1,-2,-35,7,5,1,0,1
1517145115807566,3,2,23,-2,0,-1,-1,2
1517145115820540,-1,2,13,8,0,0,-1,1
1517145115820540,1,-1,-23,-9,-1,0,-2,-2
1517145115828594,-5,-3,22,-1,-5,-2,-1,-3
1517145115828594,0,3,1,6,2,-1,-1,1
1517145115843567,-1,-3,-8,-9,-1,-1,3,-3
1517145115843567,-1,5,-21,2,1,-1,0,0
1517145115850556,1,-4,-13,-1,-2,-1,-1,-2
1517145115850556,-3,-1,30,7,-4,-3,-1,1
1517145115866622,-1,-5,-20,-13,-4,-3,-3,-1
1517145115866622,-5,-6,-21,-7,-5,-2,-1,-3
1517145115867599,1,1,-1,1,1,-2,-1,-6
1517145115867599,2,-3,-25,0,0,1,1,6
1517145115888636,0,0,23,4,1,-1,-2,-3
1517145115888636,-3,4,16,-4,-5,-2,0,-2
1517145115890600,-3,-8,-35,-3,-1,-1,-2,-1
1517145115890600,-2,-3,48,-11,-4,-3,-1,-1
1517145115903648,-7,-2,-48,-16,-6,-3,-1,-1
1517145115903648,1,4,7,7,4,0,-1,1
1517145115905611,1,9,33,1,-2,-1,-1,-1
1517145115905611,2,1,-33,4,1,1,0,-1
1517145115926609,1,-1,13,0,0,0,0,1
1517145115926609,-1,-2,-17,-4,-1,-1,0,3
1517145115927609,-1,3,-4,-5,-2,-1,-3,-6
1517145115927609,0,1,-15,4,1,1,-1,0
1517145115939618,-5,-3,40,4,-2,-2,2,5
1517145115939618,1,2,7,1,0,0,-1,-9
1517145115948657,-2,-7,-35,-5,-2,-2,1,2
1517145115948657,-5,-8,1,-5,-3,-1,-2,-2
1517145115963648,5,4,-11,5,1,1,-2,0
1517145115963648,-8,-6,24,-5,-2,-3,-1,-2
1517145115965636,-2,-5,-3,-2,-1,-2,0,0
1517145115965636,-2,2,-4,1,-3,-1,-2,-3
1517145115986705,-2,-9,-14,-11,-3,-1,-1,-3
1517145115986705,1,-3,8,-6,-1,0,-1,0
1517145115988652,-1,0,13,2,-3,-1,-2,-1
1517145115988652,-1,-1,-20,-6,-1,0,-1,1
1517145115999717,2,3,8,5,0,0,-1,-2
1517145115999717,-1,-10,6,1,3,0,-2,1
1517145116008668,-1,-5,-66,-8,2,-1,0,2
1517145116008668,1,6,48,12,1,0,3,1
1517145116023735,-3,-5,-13,0,-2,-3,-2,-3
1517145116023735,-1,-2,14,1,-4,-1,-1,-1
1517145116025679,5,7,-21,10,6,5,0,1
1517145116025679,-3,-9,-7,-21,-7,-5,-4,-4
1517145116046748,-3,-3,-19,-4,-3,-2,0,-1
1517145116046748,1,3,4,5,2,0,1,-3
1517145116047697,-1,0,25,-2,-3,-3,0,4
1517145116047697,3,2,-32,3,3,1,1,-4
1517145116059706,-1,-2,29,2,-2,-1,-2,-3
1517145116059706,0,4,-12,-2,-3,-2,-1,6
1517145116068728,1,-3,8,7,0,1,-2,-4
1517145116068728,-1,-4,1,-7,-1,-2,0,0
1517145116083776,-2,20,16,0,-3,-2,0,0
1517145116083776,-3,-18,-4,0,0,-2,-2,-1
1517145116085738,0,10,12,-5,-2,-1,-1,2
1517145116085738,-1,-3,-21,-7,0,0,-2,2
1517145116106774,4,3,-1,2,2,1,0,-1
1517145116106774,-5,0,10,-1,-1,-1,-3,-2
1517145116107737,-3,0,12,2,-4,-3,-1,0
1517145116107737,-2,-1,1,4,0,-1,-1,-1
1517145116119800,0,-6,-18,-7,2,0,0,-1
1517145116119800,-1,1,-10,5,1,-1,-2,-2
1517145116128757,-4,-9,38,-8,-6,-3,-1,3
1517145116128757,-4,1,-27,2,-1,-2,-3,-8
1517145116143763,-1,-5,14,0,0,-2,0,2
1517145116143763,1,7,-24,-1,-1,0,0,0
1517145116145764,0,0,16,4,-2,0,-1,-2
1517145116145764,-2,-4,20,-14,-5,-3,0,-1
1517145116166779,-2,-1,-15,6,0,0,-2,-2
1517145116166779,1,3,12,-3,-1,-2,-1,-2
1517145116167780,-1,0,-13,1,3,1,-1,-3
1517145116167780,-2,2,15,0,-3,-1,-2,0
1517145116179843,-4,-9,-13,-1,1,-1,0,-1
1517145116179843,1,3,2,5,-3,-2,0,0
1517145116188795,2,30,12,-3,1,1,0,-2
1517145116188795,3,-2,-33,12,3,2,1,2
1517145116203861,-4,-6,21,-9,-1,-3,1,4
1517145116203861,4,1,-10,2,-4,-2,-4,-12
1517145116205842,-3,-8,25,-1,-2,-2,-1,1
1517145116205842,12,12,-38,4,1,0,0,1
1517145116233881,-14,-14,38,-4,-2,0,-2,-3
1517145116233881,3,34,-5,5,0,-2,0,3
1517145116235862,-3,-19,-6,-12,-1,0,-1,-4
1517145116235862,-1,-11,-27,-3,-2,-4,-2,-1
1517145116239845,11,0,-3,4,1,1,-1,0
1517145116239845,-1,8,9,-3,-3,-1,0,-2
1517145116248840,1,5,-9,-1,0,-1,-1,1
1517145116248840,-1,-7,15,-1,-1,0,-1,-1
1517145116263902,0,1,-15,0,0,-2,-3,-5
1517145116263902,-7,-15,1,-9,-4,-2,0,1
1517145116265886,-1,-11,-19,0,1,-1,1,-1
1517145116265886,-5,-11,26,-3,-1,-1,-1,-2
1517145116286884,3,6,-18,12,-1,-1,-1,-1
1517145116286884,-2,-8,12,-17,-4,-2,-2,2
1517145116287865,-4,-10,-29,0,-2,-3,-2,-2
1517145116287865,-3,12,29,7,0,-1,-1,-1
1517145116299928,0,-4,-24,-8,1,0,-2,-2
1517145116299928,6,-2,13,4,0,0,-1,0
1517145116308881,-14,-17,-13,-7,-3,-1,-1,-1
1517145116308881,3,15,12,2,0,0,1,5
1517145116323946,0,-3,17,5,-4,-2,-2,-11
1517145116323946,0,-1,-26,4,4,0,0,1
1517145116325892,-2,-21,-12,-12,-4,-4,-3,-3
1517145116325892,-4,-11,1,5,-1,0,-1,0
1517145116346962,0,22,14,-1,0,1,0,2
1517145116346962,-1,-8,-23,-1,-2,0,0,0
1517145116348911,5,18,14,6,1,0,0,-3
1517145116348911,-4,-18,3,-6,-2,-1,-1,1
1517145116368941,-3,3,-6,-1,-2,-1,0,-12
1517145116368941,-3,-2,-6,-4,-1,-1,-4,8
1517145116370926,3,1,17,3,0,0,3,5
1517145116370926,-1,6,-11,-3,-3,-3,-3,-7
1517145116383933,-3,1,6,2,2,1,3,5
1517145116383933,-4,-8,-7,-3,-1,0,-1,-6
1517145116384935,1,2,7,1,-1,-1,-2,-2
1517145116384935,-1,4,-9,-7,-1,-3,0,0
1517145116406986,-1,-6,-7,2,-1,-1,1,5
1517145116406986,2,2,6,0,0,-1,-3,-16
1517145116407950,1,3,-11,3,0,1,-1,3
1517145116407950,-4,0,26,6,-3,-2,-1,-5
1517145116429001,3,-4,-7,-17,1,-1,-1,1
1517145116429001,-3,-3,1,7,-2,-2,0,2
1517145116429979,0,-11,0,-9,-2,-2,-3,-1
1517145116429979,2,-6,11,5,0,0,-1,-2
1517145116444030,-2,0,-26,-6,-4,-3,-2,-1
1517145116444030,-1,3,16,4,1,-3,0,2
1517145116445015,-3,2,1,-3,-2,-1,-2,-2
1517145116445015,0,-8,-12,-1,0,-2,-1,1
1517145116466046,-2,-1,21,-4,-2,-1,0,1
1517145116466046,-3,-15,-25,-3,-2,-1,-1,-2
1517145116472049,-3,-4,3,-1,-2,-2,-1,-3
1517145116472049,-2,11,-2,7,-1,-1,1,-1
1517145116489062,1,-3,-7,-14,-1,0,-1,1
1517145116489062,0,-2,-1,-1,-2,-2,-2,-1
1517145116491008,-2,0,0,6,-1,-2,-2,-2
1517145116491008,0,-8,-4,-5,-1,0,0,-1
1517145116511059,-3,-7,0,5,-2,-3,-3,-2
1517145116511059,0,1,-9,-13,-3,0,1,1
1517145116513024,1,-1,-9,7,4,1,-1,-3
1517145116513024,-7,-4,4,5,-1,-1,-2,-3
1517145116526087,2,-2,-9,-13,-7,-5,-1,-1
1517145116526087,-6,-6,11,-6,3,0,-1,0
1517145116528044,0,7,-19,4,0,0,-1,0
1517145116528044,-4,-2,23,5,0,1,-1,1
1517145116549106,-1,-10,-19,3,-1,0,-1,-1
1517145116549106,3,-2,1,1,-1,-1,0,0
1517145116550067,-2,13,-3,-3,-2,-3,-2,-1
1517145116550067,-3,-15,-15,-9,-1,0,0,-1
1517145116563117,2,10,21,8,1,0,-1,0
1517145116563117,-3,-20,-12,-1,-1,-1,-1,-2
1517145116570065,-3,2,5,-3,-2,-1,-1,-1
1517145116570065,2,-4,-4,-6,-2,-1,-1,0
1517145116586077,2,11,41,17,-1,-1,-2,-2
1517145116586077,-2,0,-46,-11,6,2,1,1
1517145116588079,5,1,21,-7,-3,0,0,-3
1517145116588079,1,22,-23,3,0,-1,-1,-1
1517145116609095,-7,-21,12,-8,-3,-2,-1,-1
1517145116609095,-1,5,50,19,0,-1,0,2
1517145116610093,3,7,15,-1,1,0,0,0
1517145116610093,-7,-5,-27,-16,-3,-2,-2,-1
1517145116623157,3,14,-14,2,2,0,-1,0
1517145116623157,2,-26,-12,-4,-3,0,-2,-3
1517145116630108,-4,10,-3,-4,-3,-1,-2,-2
1517145116630108,6,2,-13,14,4,1,0,-2
1517145116646173,8,5,-20,-12,-2,-1,1,0
1517145116646173,-8,4,17,1,-3,-1,0,8
1517145116648137,-2,-5,-32,1,-1,-2,-4,-24
1517145116648137,1,3,13,-1,-2,-2,-1,7
1517145116669189,-1,-3,22,5,0,-1,1,-1
1517145116669189,1,2,-75,-10,-4,-3,-1,-3
1517145116670154,1,6,30,6,2,1,-1,1
1517145116670154,-4,0,-6,-6,-1,-2,0,2
1517145116683146,-3,-8,8,2,-2,-2,-3,-3
1517145116683146,1,9,30,-1,-3,0,0,0
1517145116690204,-2,-13,-14,-2,-4,-1,0,4
1517145116690204,-1,-3,-7,-14,-2,-1,-3,-5
1517145116706217,3,1,-9,11,2,0,0,1
1517145116706217,-9,-1,9,-1,0,-3,-3,-5
1517145116708163,-4,-1,-7,-12,-1,1,2,2
1517145116708163,0,-13,12,1,-3,-1,-2,-2
1517145116738232,-1,1,-23,4,3,-1,-1,2
1517145116738232,0,7,-5,4,1,2,0,-2
1517145116739185,-2,-6,15,-1,-3,-2,-2,3
1517145116739185,-5,-11,11,-10,-9,-5,-3,-4
1517145116743188,-2,5,-11,0,-2,0,1,-2
1517145116743188,3,-11,21,11,1,-2,-2,0
1517145116750247,-1,0,-44,-10,0,-2,0,3
1517145116750247,-5,22,-5,2,0,-1,1,-1
1517145116766240,-7,-9,-6,-2,-1,-3,-2,-3
1517145116766240,3,1,8,0,-2,0,1,-3
1517145116768216,2,1,2,3,0,-1,0,-1
1517145116768216,-1,1,10,-4,-1,-1,0,0
1517145116789281,4,-6,-24,-2,-1,0,-1,-2
1517145116789281,-4,13,7,-2,-1,-1,0,-1
1517145116790221,-2,-11,3,10,0,-1,-2,1
1517145116790221,-1,-4,1,-9,-2,-3,-2,-2
1517145116803232,0,13,10,-4,6,2,0,-1
1517145116803232,6,-18,0,7,-1,-1,0,0
1517145116810236,-16,-7,-23,-23,-6,-3,-4,-2
1517145116810236,9,22,-20,13,6,2,0,1
1517145116826247,-4,-16,34,-2,-4,-2,-1,-2
1517145116826247,-8,-1,-48,-12,-8,-6,-8,0
1517145116828248,-3,-27,6,4,-2,-2,-4,-13
1517145116828248,-1,-6,-1,7,-1,-2,2,16
1517145116849281,-1,-2,-28,-5,-1,0,0,-2
1517145116849281,1,3,8,-6,2,2,1,1
1517145116850263,1,-8,3,2,-3,-2,-1,1
1517145116850263,0,-4,-10,-5,0,0,-3,-5
1517145116862326,-3,-4,4,4,-3,-2,0,0
1517145116862326,-1,0,11,-2,-2,-1,1,-2
1517145116871284,3,6,-2,0,0,0,-3,0
1517145116871284,4,10,24,5,0,0,0,-5
1517145116894315,-2,19,-2,-7,-4,-2,-2,0
1517145116894315,-4,-28,1,2,-1,0,0,-4
1517145116895296,7,9,9,3,2,-2,0,4
1517145116895296,-2,-7,5,-17,-7,-2,-2,-2
1517145116909307,-11,-16,-4,15,-2,-3,-3,-4
1517145116909307,6,20,-17,-7,-1,-1,0,2
1517145116910306,-1,-9,-22,-1,-1,-2,-2,-9
1517145116910306,-11,-15,-18,-3,0,0,-3,-12
1517145116922315,2,-1,31,1,-2,0,-3,0
1517145116922315,-2,-15,-11,-3,-1,-1,3,19
1517145116931321,-3,4,23,1,-2,-2,-4,-27
1517145116931321,-1,-4,-17,-3,-1,0,-2,-1
1517145116946387,0,6,8,-6,-3,0,-2,-3
1517145116946387,0,8,7,9,1,-1,-2,-2
1517145116948359,9,5,-4,-9,-1,-2,2,12
1517145116948359,-4,-12,-2,4,1,0,0,-1
1517145116976354,2,-6,-14,-1,-1,-2,-2,-1
1517145116976354,0,6,1,0,-1,-2,-3,-4
1517145116978364,-2,-4,-1,0,-1,-1,1,9
1517145116978364,3,4,13,0,-1,-2,-2,-14
1517145116982412,-1,-1,-15,-11,-2,-1,1,7
1517145116982412,-9,-9,-5,5,0,-1,-2,-7
1517145116991365,-1,-2,29,-3,-2,-1,0,7
1517145116991365,1,11,-16,5,2,0,0,-1
1517145117006429,2,-3,-13,1,-3,-1,-1,-5
1517145117006429,-6,-33,-13,-14,-3,0,-3,-8
1517145117008377,3,46,20,-1,-2,-2,1,6
1517145117008377,1,-13,-12,-3,-3,-1,1,5
1517145117028407,-4,-5,-16,1,2,0,-2,-2
1517145117028407,4,13,13,6,1,-1,-1,-3
1517145117030391,-1,-7,11,7,1,1,0,3
1517145117030391,-2,-7,-5,-6,-2,0,-2,-3
1517145117042401,0,9,4,4,1,-1,-2,-10
1517145117042401,4,10,-11,-3,-2,-2,-1,13
1517145117051406,-5,-7,-11,-3,0,-1,1,-4
1517145117051406,2,16,24,2,-2,-1,-1,-1
1517145117066473,-7,-17,-12,-1,-2,-1,-1,-1
1517145117066473,3,3,18,-2,0,-1,-1,-4
1517145117068420,-13,-5,-7,3,2,1,-2,-1
1517145117068420,-7,-35,-11,-2,-2,-1,-2,1
1517145117088493,1,2,-4,-5,-2,-1,0,3
1517145117088493,0,5,6,-3,-1,-1,-1,-5
1517145117090436,3,2,-14,1,-3,-2,-1,0
1517145117090436,2,-1,-18,-6,-5,-1,1,0
1517145117102504,-2,9,23,-4,1,0,-2,2
1517145117102504,5,-14,12,-4,1,1,-1,-3
1517145117111450,-12,-14,-59,-3,-4,-2,-2,-5
1517145117111450,0,2,29,21,0,0,-2,2
1517145117126477,2,-6,-91,-27,-1,-3,0,-1
1517145117126477,6,19,66,-13,-7,-3,1,-1
1517145117127495,-9,-21,-7,-2,1,-1,-2,-1
1517145117127495,3,11,-22,3,-1,-2,-1,-4
1517145117148530,8,20,13,15,3,3,-1,0
1517145117148530,-7,-1,-3,0,-3,-1,-4,-4
1517145117150476,-3,-16,7,-5,-4,-3,1,0
1517145117150476,1,4,16,4,0,0,-1,2
1517145117162540,1,-13,-5,2,-2,-1,0,1
1517145117162540,0,12,-15,-4,1,1,0,3
1517145117171494,5,-3,10,-1,-2,0,-1,-2
1517145117171494,-2,7,8,-1,1,-2,-3,-12
1517145117186556,0,-10,14,-5,-4,-3,-1,-1
1517145117186556,-5,-5,-19,2,-3,-3,-3,-2
1517145117187538,1,-1,18,4,2,1,1,1
1517145117187538,-2,-9,1,-5,-1,-1,-1,2
1517145117216543,2,13,1,-2,-2,-1,-2,0
1517145117216543,-2,4,-8,5,1,-2,-3,-4
1517145117217560,2,13,16,0,1,1,-1,0
1517145117217560,6,4,-11,-9,0,-2,0,0
1517145117222528,-8,-6,13,8,2,-1,0,-3
1517145117222528,-5,5,17,8,0,0,-1,-2
1517145117231534,1,-17,-31,-4,3,1,-1,0
1517145117231534,-4,-3,-1,-13,-6,-4,-1,1
1517145117246544,-2,3,17,6,1,1,1,-2
1517145117246544,5,-2,-5,-3,-4,-3,2,-3
1517145117247547,4,17,19,5,-1,1,1,5
1517145117247547,-2,-11,-10,7,2,0,-3,-9
1517145117269616,-7,-17,3,-6,-5,-2,-2,-4
1517145117269616,-6,-24,1,1,1,-2,-1,-2
1517145117271580,1,12,3,-3,-3,-1,-1,4
1517145117271580,2,-9,-11,-4,-2,-2,0,2
1517145117291594,5,9,-13,-4,-3,-2,-2,0
1517145117291594,0,-5,-17,1,1,1,0,-4
1517145117292577,-1,-1,24,0,-2,-1,-2,-4
1517145117292577,-4,-1,-19,-4,-2,-1,0,1
1517145117306597,-1,-6,2,2,0,0,-1,-2
1517145117306597,5,5,0,7,-1,-2,-1,0
1517145117307611,-15,-1,-30,-10,-1,-2,-2,-5
1517145117307611,3,7,12,4,1,0,-1,-1
1517145117328656,-1,-7,-4,-1,-6,-2,-1,4
1517145117328656,0,14,5,-15,-7,-1,0,-1
1517145117330604,-1,-24,0,7,9,0,-1,1
1517145117330604,-3,1,7,0,-3,-3,-3,0
1517145117351636,-12,-11,2,-1,0,-1,-1,-5
1517145117351636,0,-18,0,15,4,0,-3,-3
1517145117352621,-1,10,12,-23,-8,-3,-2,-4
1517145117352621,1,16,-24,1,0,1,0,1
1517145117366684,0,-14,13,-1,-2,-3,-1,4
1517145117366684,-4,10,-68,-2,-2,-2,-2,-10
1517145117367632,2,-12,11,4,1,0,1,-4
1517145117367632,3,4,9,-2,2,1,0,10
1517145117388699,-1,13,11,-1,-3,0,-1,-6
1517145117388699,-5,-8,8,-2,1,-1,0,9
1517145117390646,7,-5,-14,1,-2,-2,-1,-5
1517145117390646,-1,17,-6,0,0,-1,-3,-2
1517145117411717,1,-8,-1,1,2,1,-1,-1
1517145117411717,-2,6,16,-7,-3,-1,-2,-3
1517145117412663,1,-5,-5,0,-2,-3,-2,1
1517145117412663,-3,-7,11,-1,-3,-2,-3,0
1517145117426678,-3,-14,-14,-4,-2,-1,-2,-1
1517145117426678,0,3,-4,-2,0,-2,-2,0
1517145117427673,1,6,-4,3,-1,0,-1,2
1517145117427673,-4,-9,8,-2,1,-1,0,-3
1517145117448743,-3,7,6,3,-2,-2,-1,-1
1517145117448743,-2,4,3,-9,-3,-2,-1,-1
1517145117450689,-3,0,-13,4,1,-2,-2,0
1517145117450689,-1,-5,-5,-6,-3,-1,2,0
1517145117471764,-2,-4,-2,-3,-1,0,0,0
1517145117471764,3,-1,6,2,-1,1,2,4
1517145117472705,5,3,12,8,0,1,-1,-4
1517145117472705,-5,-4,30,0,-2,-2,-1,-4
1517145117485769,6,18,-29,-14,-4,-3,-1,1
1517145117485769,-3,-3,-6,3,-1,-1,0,1
1517145117492719,3,0,-27,-4,-1,1,1,7
1517145117492719,-2,-4,38,8,1,1,-3,-5
1517145117516775,-2,-7,-27,-5,-1,-1,-2,0
1517145117516775,-2,-5,16,-2,-1,0,-1,-2
1517145117517740,2,13,6,4,-2,-2,-1,1
1517145117517740,-6,-20,-27,-7,-3,-3,-1,0
1517145117531753,-1,7,21,4,1,1,-1,0
1517145117531753,-1,-2,-17,-3,-1,-1,-3,-3
1517145117532750,2,16,16,-1,-2,-1,-2,-1
1517145117532750,1,9,-6,-2,-1,-2,-2,-2
1517145117545759,1,-4,18,0,0,-1,0,-2
1517145117545759,-1,-2,-25,-1,0,-2,1,-3
1517145117552782,-4,-11,14,-1,-3,-2,-2,-2
1517145117552782,-3,-2,-3,-6,-1,-1,-1,0
1517145117569798,-2,-2,3,4,0,0,-2,0
1517145117569798,1,-1,6,-3,-1,-1,0,4
1517145117570795,-2,3,-9,-3,-1,-1,-2,-4
1517145117570795,2,-9,-6,-7,-1,1,0,0
1517145117591790,-2,-1,11,5,1,0,0,-3
1517145117591790,0,-4,-17,-1,0,2,1,2
1517145117592791,-3,-5,7,-5,-3,-3,-1,0
1517145117592791,-2,-8,-3,1,-4,-3,-1,0
1517145117605859,2,15,-3,-1,-1,0,0,-1
1517145117605859,-1,-3,14,2,2,1,-2,-3
1517145117612866,-1,-2,6,-6,-2,-2,0,-2
1517145117612866,2,3,1,-1,-2,-2,-2,-1
1517145117636822,-3,-9,-1,-1,-1,-2,-1,-2
1517145117636822,-1,0,-3,3,0,-2,-1,1
1517145117637822,1,-9,-8,-2,-1,-1,-3,-6
1517145117637822,-1,5,-1,0,-1,-1,1,1
1517145117651856,0,-4,-21,-3,-2,-3,-2,-2
1517145117651856,-1,0,38,0,0,-2,-2,0
1517145117652854,-2,-6,-16,0,-3,-2,0,1
1517145117652854,-2,6,-2,0,0,0,0,-1
1517145117665846,0,-10,-14,-1,-1,-1,-1,-2
1517145117665846,1,1,-4,1,0,-1,-1,-3
1517145117672853,5,14,13,1,0,0,0,1
1517145117672853,-1,3,-7,1,1,-1,-1,1
1517145117688917,-2,0,-14,-2,1,0,1,1
1517145117688917,-2,-9,4,-3,-2,-2,-2,-2
1517145117690869,-9,4,24,-1,-2,-2,-1,-3
1517145117690869,4,0,-2,0,1,1,0,2
1517145117711876,2,3,14,-2,-3,-1,0,0
1517145117711876,-3,7,-1,1,0,0,-2,-4
1517145117712879,-3,-11,-43,-5,-2,-1,-1,2
1517145117712879,-4,-17,-4,1,-1,-1,-1,-4
1517145117725917,-5,-1,17,1,-2,-2,-1,4
1517145117725917,1,-13,-13,2,-2,-4,-5,-11
1517145117732897,-4,11,14,-3,0,0,0,1
1517145117732897,-1,2,0,-1,-1,-1,-2,1
1517145117748959,0,-10,-21,-3,0,-1,0,-2
1517145117748959,1,13,1,-1,-2,-1,1,0
1517145117750934,-2,-2,-6,2,0,-1,-1,-1
1517145117750934,2,-3,8,-3,-1,-1,-1,-3
1517145117771920,-1,-8,-7,1,0,0,0,1
1517145117771920,0,-4,18,-2,-2,-1,-4,-8
1517145117772926,0,3,-3,-4,-2,-1,-2,0
1517145117772926,0,9,23,3,0,-2,0,0
1517145117793940,-4,-6,3,-1,-4,-3,-3,-3
1517145117793940,-1,-2,-27,-5,0,1,1,3
1517145117795936,1,-3,-18,1,1,-1,-1,-2
1517145117795936,-5,-7,18,-4,-4,-2,-1,-5
1517145117808951,7,17,11,3,0,0,-1,0
1517145117808951,-10,-19,-18,0,0,-2,0,0
1517145117810947,0,3,4,-4,-1,-1,0,-2
1517145117810947,2,8,-10,3,3,-1,-1,1
1517145117831969,-6,-14,-4,-4,-2,-2,-2,-8
1517145117831969,1,14,3,0,-2,-1,-1,3
1517145117832965,-1,-24,3,2,1,1,0,0
1517145117832965,-2,-9,1,1,0,0,-2,-3
1517145117844970,-4,7,-26,-3,-1,-1,1,2
1517145117844970,-4,-3,23,-11,-5,-3,-2,-2
1517145117861983,-7,-7,-14,-3,-3,-1,0,-1
1517145117861983,0,6,-5,0,-1,0,1,5
1517145117868988,5,-1,-11,1,0,1,-2,1
1517145117868988,-1,-1,20,2,-1,-1,1,2
1517145117869988,-1,-7,3,0,-2,-2,-2,-1
1517145117869988,-1,3,-8,-6,-2,-1,1,0
1517145117891003,-3,-11,-10,-3,-2,-1,-1,-2
1517145117891003,2,15,-6,1,-2,0,0,0
1517145117899008,-2,-6,10,1,3,-1,-2,-1
1517145117899008,-3,-4,-17,-1,-2,0,-1,-2
1517145117905031,-2,-8,25,4,2,-2,-1,-1
1517145117905031,1,2,-24,-8,-1,0,0,1
1517145117914022,1,7,11,1,0,-1,-1,-2
1517145117914022,-3,-5,6,-3,-3,-2,-2,-2
1517145117929031,0,2,7,-2,-2,0,1,3
1517145117929031,0,4,-10,-4,-3,-3,-4,-6
1517145117930033,0,15,-3,1,-1,0,2,0
1517145117930033,0,-3,-12,0,-1,0,-1,-3
1517145117951537,3,12,26,-1,0,-1,0,1
1517145117951537,-3,-16,-1,3,-1,0,-1,0
1517145117953037,0,-9,-17,-3,-2,-1,-2,-1
1517145117953037,2,18,6,4,1,1,1,4
1517145117965546,-1,2,-4,-4,-2,-2,-2,-3
1517145117965546,-1,1,7,0,1,2,0,-1
1517145117974052,-1,-10,-29,-4,-3,-2,-3,-4
1517145117974052,-1,-4,23,-4,-4,-2,0,2
1517145117989066,-3,-5,-25,-3,3,-1,-2,-3
1517145117989066,-1,3,20,3,0,-2,-1,2
1517145117990579,0,-7,10,2,-1,-1,0,1
1517145117990579,-3,5,-22,-2,-1,-2,-1,-5
1517145118011594,1,3,3,-2,-2,-3,-1,-2
1517145118011594,0,-11,-10,-1,0,1,-1,-2
1517145118013079,0,4,8,4,0,0,-2,-1
1517145118013079,-1,1,-4,1,0,-1,-1,-2
1517145118025090,2,8,24,0,-2,0,-2,-2
1517145118025090,-3,2,-17,-2,-1,0,0,2
1517145118034094,6,12,-7,-1,0,-2,0,-2
1517145118034094,-4,-9,19,-2,-2,-1,-2,-3
1517145118048623,-2,10,-24,-8,-5,-2,-1,4
1517145118048623,-7,-15,-3,1,0,-3,-3,-10
1517145118050613,-1,-9,-40,0,2,0,0,2
1517145118050613,2,7,28,4,-2,0,-1,-1
1517145118071680,-4,-3,-13,-4,0,-1,1,3
1517145118071680,0,3,-13,-3,-2,-2,-3,-10
1517145118072645,-1,-4,20,1,1,-1,-1,0
1517145118072645,-3,-20,-19,-3,-1,-2,-3,-4
1517145118084634,-5,-2,-2,0,0,0,-1,-1
1517145118084634,1,3,8,1,-2,-1,0,3
1517145118093643,-2,4,15,6,-1,1,-1,-3
1517145118093643,-5,-13,-24,-9,-3,-2,-2,-5
1517145118108654,-2,-3,0,1,-2,-1,-2,-2
1517145118108654,-1,3,-1,-1,0,0,2,3
1517145118110654,-1,1,24,-2,-2,-1,-2,1
1517145118110654,-3,-7,-13,2,0,-1,-1,1
1517145118131732,1,5,-2,0,-1,-2,-1,-4
1517145118131732,0,-2,6,-1,-2,-2,1,0
1517145118132668,6,9,1,-3,-2,-2,-1,1
1517145118132668,1,8,-5,-3,-1,-2,-2,2
1517145118144692,-2,-11,-6,4,5,0,-3,-10
1517145118144692,-1,-1,19,0,-1,-2,0,7
1517145118153684,-1,1,-15,-9,-5,-1,-1,2
1517145118153684,-1,15,-12,3,0,-1,-3,-5
1517145118176699,1,-3,-3,-1,-4,0,1,-1
1517145118176699,1,-2,5,6,1,0,-1,0
1517145118177702,-8,-15,13,-7,-1,-2,0,-5
1517145118177702,6,7,10,-2,-4,-3,0,9
1517145118191727,-3,-9,-4,0,-2,-2,-1,5
1517145118191727,-1,5,1,-6,-2,0,-1,0
1517145118192711,-2,-5,-4,6,2,-1,-1,-4
1517145118192711,-1,-7,1,-1,-2,0,0,-5
1517145118204774,1,0,9,-2,-1,-1,-1,-1
1517145118204774,-3,-6,-10,-4,0,1,-3,0
1517145118213725,-2,8,-3,-2,-2,-2,-2,-1
1517145118213725,-1,-10,-6,-2,-3,-2,-2,-2
1517145118228750,0,2,1,-1,-2,-1,0,6
1517145118228750,-1,-5,-10,-2,0,-2,-2,-2
1517145118230737,-1,-3,3,1,0,-2,-3,-12
1517145118230737,-1,-1,1,4,1,-1,-2,2
1517145118251797,-4,-10,-24,-13,-4,-1,-2,-2
1517145118251797,0,-9,-6,-1,-4,-4,-2,0
1517145118252753,1,8,14,-1,0,-1,0,0
1517145118252753,-6,11,1,1,-2,-1,0,-2
1517145118281783,2,0,11,6,1,0,0,-3
1517145118281783,-5,4,0,-4,-1,-2,-2,-1
1517145118282775,-3,-2,-13,-3,-2,-2,-1,2
1517145118282775,5,4,-10,-5,1,-1,-1,0
1517145118288795,2,5,6,5,-2,-2,-1,-1
1517145118288795,1,7,-6,-1,-3,-1,-1,-1
1517145118290790,-3,-17,-1,2,-1,-1,-2,0
1517145118290790,-2,-2,-5,-9,-1,0,-1,-3
1517145118311795,-3,5,-2,3,1,-2,0,-2
1517145118311795,0,-6,19,0,-1,-1,-1,0
1517145118312798,-3,-8,-13,-1,0,1,-1,-2
1517145118312798,-2,-3,-20,-2,-3,0,-1,-2
1517145118333847,1,-2,11,-1,-3,-1,0,-3
1517145118333847,2,13,2,0,0,1,1,2
1517145118335829,1,3,3,1,-1,0,-2,-4
1517145118335829,-2,-24,7,-3,-1,0,-3,-7
1517145118349825,2,2,-2,3,-1,0,0,1
1517145118349825,-1,6,-19,1,1,1,-3,-2
1517145118350823,-5,-9,24,-8,-5,-5,0,3
1517145118350823,2,0,-1,6,0,-1,-1,1
1517145118371838,-7,-8,2,-2,-1,-2,-3,-5
1517145118371838,4,0,-10,-1,-1,-1,0,0
1517145118372839,0,-3,-7,-1,0,0,-1,1
1517145118372839,-2,-5,7,-1,-1,-1,0,0
1517145118393855,-2,-3,3,-2,-2,0,-2,0
1517145118393855,-6,-3,-3,-6,-2,0,0,-1
1517145118395887,-1,0,-1,-1,-2,-1,-1,0
1517145118395887,-2,-3,10,3,-1,-1,-1,-1
1517145118407881,1,5,-10,-1,0,-2,-2,0
1517145118407881,-1,-11,3,-1,-3,-3,-1,-2
1517145118414922,1,0,-4,3,1,-1,-2,0
1517145118414922,-3,-4,-10,-11,-3,-1,-1,-2
1517145118431881,5,9,6,2,2,1,0,0
1517145118431881,2,5,23,3,-2,-2,-2,-2
1517145118432883,-6,-7,-55,-9,-6,-5,-1,-2
1517145118432883,-2,-6,16,-1,-2,-2,0,0
1517145118453913,-2,-2,-10,-7,-3,-1,-1,-1
1517145118453913,0,1,6,2,0,0,1,4
1517145118455900,1,4,4,1,1,1,-2,-9
1517145118455900,-1,5,-3,-2,-2,-2,-3,2
1517145118467959,0,-7,-10,0,1,-1,1,-3
1517145118467959,-2,4,3,-1,-1,0,-1,-2
1517145118474915,-3,-2,1,-2,-1,-1,-2,2
1517145118474915,2,4,6,4,1,0,-2,-1
1517145118490941,-2,-12,18,-3,-3,-1,-1,-3
1517145118490941,-4,-3,-22,-4,-2,-2,-2,-1
1517145118492926,2,3,18,1,-1,1,0,3
1517145118492926,-1,-8,-33,-6,0,-1,-1,-1
1517145118513938,-1,3,10,0,-3,-3,-1,5
1517145118513938,-5,-12,-3,1,-2,-2,-1,-11
1517145118514939,-2,9,5,3,-2,-3,0,1
1517145118514939,-2,-1,2,-4,3,0,2,-1
1517145118528000,0,-3,-9,0,0,0,-1,0
1517145118528000,-2,2,-16,-3,-1,0,-1,-1
1517145118534972,0,9,29,1,-1,0,1,1
1517145118534972,2,-2,4,4,0,0,0,-2
1517145118550982,-2,-4,-1,-1,-2,-1,-3,-2
1517145118550982,5,7,11,1,1,-2,0,-1
1517145118557970,-2,-11,-11,-2,-4,-1,-3,0
1517145118557970,-2,4,10,1,-3,-1,-4,-10
1517145118574035,-1,1,-13,-2,-2,-1,0,0
1517145118574035,-1,-14,-1,-1,0,-2,-1,0
1517145118574983,-3,-5,-28,-6,-2,-1,1,-1
1517145118574983,-2,-5,5,0,-1,0,0,1
1517145118587994,-5,-14,14,-2,-3,-1,-2,-2
1517145118587994,2,5,-4,-3,-1,-2,-2,-1
1517145118594996,-1,-1,-5,-4,-1,-2,-2,1
1517145118594996,-1,2,-13,0,-1,-1,-1,0
1517145118611044,-1,-1,-10,1,0,1,-1,-4
1517145118611044,-1,1,2,-1,-1,0,1,2
1517145118613027,1,-3,3,-2,0,0,-2,-2
1517145118613027,-1,-2,-10,-3,-3,-1,-1,0
1517145118634083,1,6,9,1,-1,0,0,-1
1517145118634083,-2,-1,-2,-2,0,-2,-3,-1
1517145118635061,-2,-1,5,0,0,-1,-2,-1
1517145118635061,0,3,13,3,-2,-1,-2,0
1517145118648090,-2,-6,-7,-10,1,0,1,6
1517145118648090,-1,-5,-9,-3,-3,-2,-4,-6
1517145118655095,0,1,-21,4,1,-1,0,2
1517145118655095,0,4,15,-4,-3,-1,1,4
1517145118671106,-1,-1,1,1,-3,-2,-2,-10
1517145118671106,-1,0,-6,-3,-2,0,0,1
1517145118673068,0,3,5,4,2,-1,-2,-1
1517145118673068,-1,1,-2,1,-2,-3,0,1
1517145118694119,2,7,0,0,-3,-3,-2,-1
1517145118694119,-2,-6,-4,0,-2,-1,-2,-2
1517145118695086,1,-2,-3,-2,-2,-1,-1,-1
1517145118695086,-5,-12,-8,-2,1,-1,1,-2
1517145118707094,-3,15,9,1,-1,-2,-3,0
1517145118707094,-3,-6,-16,0,0,-2,-2,-2
1517145118716081,-2,-6,0,-7,-4,-2,1,3
1517145118716081,0,2,10,-1,0,0,-1,-3
1517145118732093,2,-3,9,3,-2,0,-1,-1
1517145118732093,-7,-1,4,-9,-2,-2,-1,0
1517145118733093,-1,4,1,2,2,-1,-1,-2
1517145118733093,-1,0,-11,-3,-1,-2,-2,-2
1517145118754108,1,-10,-6,-1,-2,-1,-1,0
1517145118754108,2,5,13,4,2,2,-1,1
1517145118755109,-2,-13,-7,-5,-4,-1,1,-4
1517145118755109,-3,3,-8,-6,-3,-3,-1,0
1517145118767120,-2,-3,8,7,3,-1,-1,2
1517145118767120,-3,-6,-6,-4,-3,-1,-1,-1
1517145118776126,1,2,10,-1,0,0,-2,0
1517145118776126,0,9,-18,-1,-2,-1,-1,-1
1517145118791136,-2,-8,7,-3,-2,-3,-1,-1
1517145118791136,5,0,-11,0,0,-1,0,-2
1517145118793137,-6,5,33,4,-1,0,0,-1
1517145118793137,1,-3,-2,-1,-2,-2,-2,2
1517145118814187,-1,3,4,-2,-1,0,0,3
1517145118814187,-1,1,11,2,-1,-2,-3,-6
1517145118815173,1,-6,-13,2,-3,-2,-1,-3
1517145118815173,2,-3,0,-2,2,-1,-1,-2
1517145118827163,-1,-3,-16,-4,-2,-1,0,-3
1517145118827163,2,-1,8,0,-1,-1,0,3
1517145118836172,-3,-3,-26,-4,-1,-1,-2,-4
1517145118836172,-3,-7,15,2,-3,0,-1,-3
1517145118851234,-3,8,-5,-8,-4,0,0,-3
1517145118851234,-1,-8,2,0,-2,-2,-1,1
1517145118853195,4,3,1,-8,-1,-1,-1,-2
1517145118853195,1,4,6,3,2,-1,0,2
1517145118874258,-3,-6,-18,-1,-1,-2,0,-3
1517145118874258,0,7,12,5,1,1,0,0
1517145118875196,-2,-6,-24,-10,-6,-3,-2,0
1517145118875196,-1,-2,-2,2,-2,-1,-2,0
1517145118887259,0,3,2,-2,-1,-1,-3,0
1517145118887259,-2,-10,-5,-1,0,-1,-1,2
1517145118902270,1,25,10,5,3,-1,-3,-10
1517145118902270,-1,-1,-16,-3,-3,-1,-1,0
1517145118912223,2,-6,19,2,0,-3,-2,-1
1517145118912223,-4,3,-36,-8,-2,-3,-1,1
1517145118913223,2,-4,20,2,-1,1,1,5
1517145118913223,-6,-2,-20,-7,-5,0,-3,-11
1517145118934269,4,2,0,3,2,1,-2,0
1517145118934269,-2,-5,0,1,-2,0,0,-2
1517145118935237,2,5,21,4,2,0,0,2
1517145118935237,-3,-14,-25,-7,-2,-2,-1,-3
1517145118947246,-4,-2,5,1,-2,-1,0,-1
1517145118947246,0,2,2,-7,-1,0,-1,0
1517145118956254,-3,-1,-5,0,0,0,1,2
1517145118956254,1,1,18,3,1,-1,0,-2
1517145118971320,-1,-3,-16,-4,-1,0,-1,-3
1517145118971320,0,2,13,3,-3,-3,0,-1
1517145118973274,-1,-5,-7,-6,-5,-1,-2,-1
1517145118973274,-1,-3,-3,-2,2,-1,0,5
1517145118994301,2,0,-12,-2,-1,-2,-3,-5
1517145118994301,-2,-7,9,0,-1,-2,-1,1
1517145118995279,-4,-8,-17,-8,-5,-3,-2,-1
1517145118995279,2,3,0,0,-1,-1,-2,-1
1517145119016351,-2,4,-6,-1,-1,0,-1,2
1517145119016351,1,6,13,4,-1,0,-3,-3
1517145119018332,1,2,-2,2,2,0,3,0
1517145119018332,1,-6,-13,-1,0,1,-2,-1
1517145119031362,0,3,32,7,1,1,-1,2
1517145119031362,2,3,-9,-7,0,0,-1,-3
1517145119033332,-3,-2,12,4,-1,-1,-1,2
1517145119033332,-2,-8,-12,1,-2,-3,-2,-1
1517145119054330,-2,-4,-4,0,-1,-2,-1,1
1517145119054330,-2,0,6,-1,-1,-1,-4,-15
1517145119055322,-1,-7,3,1,-1,-1,-2,0
1517145119055322,1,6,15,2,-3,-2,1,0
1517145119067386,-4,-3,-12,-10,-4,-2,-2,0
1517145119067386,-1,0,-11,2,1,-1,1,5
1517145119076338,-3,-15,-26,-3,0,-1,-2,-6
1517145119076338,-3,-3,24,1,0,-1,-3,-2
1517145119091366,-2,-10,-21,-2,-3,0,1,-1
1517145119091366,-3,-7,-8,-4,-3,-2,-2,1
1517145119093371,5,6,0,-1,0,1,0,-2
1517145119093371,-6,-12,3,0,-2,1,1,4
1517145119114365,-1,8,8,1,2,0,-1,4
1517145119114365,1,-1,-13,-1,-1,0,-1,-6
1517145119115371,-5,-4,20,-2,-2,-4,-2,-3
1517145119115371,2,6,2,-3,-1,-3,0,0
1517145119127374,-4,-9,3,2,-1,-2,1,4
1517145119127374,4,5,-3,-2,-3,-3,-3,-4
1517145119137383,-1,5,11,-4,1,2,-1,-2
1517145119137383,-1,-1,-13,1,-2,-2,0,7
1517145119151391,-5,-8,-19,-3,-1,-2,-1,-8
1517145119151391,-1,6,14,3,0,-1,-1,2
1517145119153392,3,5,-27,-4,-3,-1,-1,-4
1517145119153392,2,20,29,3,2,1,2,-1
1517145119173460,0,-1,4,-6,-5,-3,-2,-4
1517145119173460,-5,-7,-6,-1,-1,-1,0,0
1517145119180424,0,-8,10,4,0,-1,-1,-1
1517145119180424,-3,-1,-7,-2,-1,0,0,-3
1517145119196451,3,3,-22,2,-1,-2,-2,-1
1517145119196451,-3,-20,10,-5,0,-1,1,1
1517145119198426,1,2,-4,-2,0,-3,0,3
1517145119198426,-4,-10,-1,1,0,0,2,-5
1517145119211436,-14,-39,-4,-9,-2,-3,-7,-12
1517145119211436,5,11,-12,-1,-1,-1,0,13
1517145119212449,8,48,3,3,0,1,1,1
1517145119212449,-2,-5,-2,-3,-2,-1,12,-7
1517145119233504,0,3,5,1,-1,1,1,4
1517145119233504,0,3,-17,-4,-1,1,1,-3
1517145119235466,-3,-18,2,-1,0,-1,-7,-1
1517145119235466,-1,4,-6,-3,-2,-2,-7,1
1517145119263500,5,11,10,2,-1,0,3,-2
1517145119263500,-2,-3,-8,4,1,-1,-3,5
1517145119265474,-5,-12,4,-3,-2,-1,-2,-7
1517145119265474,0,-10,-21,-3,-2,-2,-5,3
1517145119271529,1,3,4,4,1,0,0,0
1517145119271529,-3,-2,-8,-7,0,0,-1,-7
1517145119272495,-5,-7,3,-2,0,0,2,3
1517145119272495,1,-5,-6,-1,1,-1,-4,-1
1517145119293491,3,18,8,-4,-1,0,-2,-2
1517145119293491,-2,-14,1,3,-3,-2,0,0
1517145119295510,0,-14,1,2,-1,0,2,0
1517145119295510,-6,21,12,-3,-2,-1,-3,-3
1517145119316524,-1,-7,-24,-3,0,-1,1,3
1517145119316524,-2,10,5,-2,0,-1,-2,-5
1517145119317525,-4,-8,21,1,-1,-1,-3,-2
1517145119317525,-3,-13,-12,1,-1,-1,-2,-1
1517145119330539,-2,0,-4,0,0,-1,-1,2
1517145119330539,1,2,3,-4,-1,0,3,2
1517145119337576,-1,3,7,1,-3,-1,-3,-4
1517145119337576,3,15,-26,-5,-4,-1,1,3
1517145119353590,2,8,7,-1,-2,0,-2,-3
1517145119353590,-4,-14,-15,-4,2,-3,-2,1
1517145119355552,-1,2,-20,3,-1,-1,-1,0
1517145119355552,0,-3,25,6,2,0,-2,-1
1517145119376555,-1,-2,10,-4,-2,0,0,0
1517145119376555,0,2,8,12,-4,-1,-3,-2
1517145119377553,-4,-3,-1,-16,-5,-2,-1,1
1517145119377553,3,-10,-11,-5,0,-2,-1,3
1517145119389559,-1,14,-13,-6,-1,-2,-4,-4
